Time,RGLTMED,RRF,RADDLONG,RBF,RTA,RGM
0.0,0.0032008855316526053,-0.008393383529607633,-0.0021169734323344975,0.0013873087711480142,0.0016676934090709983,0.004039845779554598
0.001,0.0034252166280840193,-0.007577823688003437,-0.0018201037879004862,0.0015119568197475783,0.00208713408472147,0.004463275802959188
0.002,0.003651957712295612,-0.006761638370637617,-0.0015251464807062005,0.0016359859883000314,0.0025042472831864255,0.004886083214825132
0.003,0.003881028821666331,-0.00594519063135264,-0.001232274712010506,0.0017593011130510952,0.0029187936110279637,0.005308005453078554
0.004,0.004112348418244645,-0.005128841133712824,-0.0009416588018365173,0.0018818078085981321,0.0033305384107804835,0.005728780038686203
0.005,0.0043458334874412925,-0.004312947718641009,-0.0006534659420758603,0.0020034126383957065,0.0037392521922108703,0.006148144901288659
0.006,0.0045813996373458435,-0.0034978649831243188,-0.0003678599562157905,0.0021240232821728255,0.004144711057156602,0.006565838703326806
0.007,0.00481896119831363,-0.0026839438709246118,-8.500106631454039e-05,0.0022435486995423717,0.004546697116931967,0.00698160116198987
0.008,0.005058431322477523,-0.0018715312761631879,0.00019495433217976967,0.0023618992892536243,0.004944998901332626,0.0073951733684006135
0.009,0.005299722082840344,-0.0010609696605779415,0.0004718538872052884,0.0024789870436757477,0.0053394117582854506,0.007806298103525633
0.01,0.005542744571598453,-0.00025259668517074567,0.0007455494979303414,0.002594725698192621,0.005729738243196046,0.008214720150350227
0.011,0.005787408997341304,0.0005532551431246154,0.0010158975131674844,0.0027090308752469655,0.006115788497050083,0.00862018660188255
0.012,0.006033624780773938,0.0013562588092101858,0.0012827589198869053,0.0028218202228101415,0.006497380612329517,0.009022447164555372
0.013,0.006281300648625153,0.00215609311156312,0.001545999521389703,0.0029330135470849606,0.00687434098581369,0.009421254456585036
0.014,0.006530344725431637,0.002952442967556384,0.001805490104742615,0.0030425329392760932,0.007246504657354605,0.009816364300833005
0.015,0.006780664622918768,0.0037449997020429443,0.00206110659712392,0.00315030289628476,0.007613715633747558,0.010207536011701357
0.016,0.007032167526721183,0.0045334613189587205,0.0023127302107789197,0.003256250435201704,0.007975827196856864,0.010594532675585957
0.017,0.007284760280197468,0.005317532755779524,0.002560247576330052,0.0033603052014882684,0.008332702195194374,0.010977121424416144
0.018,0.007538349465100081,0.006096926120757885,0.0028035508642360522,0.0034623995707522576,0.008684213318185823,0.011355073701827333
0.019,0.007792841478874418,0.006871360912956345,0.003042537894253447,0.0035624687440432377,0.00903024335240093,0.011728165521537014
0.02,0.008048142608386532,0.007640564225162114,0.003277112232821627,0.003660450836609238,0.00937068541906912,0.012096177717517486
0.021,0.00830415909991768,0.008404270929802473,0.003507183278360468,0.0037562869600702214,0.00970544319224933,0.01245889618557358
0.022,0.008560797225311723,0.009162223847988593,0.0037326663345269833,0.0038499212979697783,0.010034431097063489,0.012816112115936074
0.023,0.008817963344211716,0.009914173901812515,0.003953482671521939,0.003941301174664933,0.010357574487435366,0.01316762221647401
0.024,0.009075563962367268,0.010659880250019665,0.00416955957557097,0.004030377117508045,0.010674809802800804,0.013513228926121125
0.025,0.009333505786026413,0.011399110407188516,0.004380830386729189,0.004117102912269484,0.010986084703272503,0.013852740618111831
0.026,0.009591695772440005,0.012131640346578371,0.004587234525174548,0.0042014356517494,0.011291358182752028,0.014185971792636051
0.027,0.009850041176503867,0.012857254586851262,0.004788717506166078,0.004283335777533072,0.011590600659484043,0.014512743258559061
0.028,0.010108449593553706,0.013575746262916116,0.004985230943852858,0.004362767114853848,0.011883794043545717,0.014832882303922419
0.029,0.010366828998325623,0.014286917181166743,0.005176732544131742,0.004439696900535017,0.012170931780759422,0.01514622285504264
0.03,0.010625087780114834,0.014990577859396028,0.005363186086768565,0.004514095803984339,0.01245201887251035,0.015452605624133389
0.031,0.010883134774210816,0.015686547551685817,0.005544561397018101,0.00458593794121345,0.012727071870952024,0.015751878245463685
0.032,0.011140879289750532,0.0163746542586047,0.005720834307001121,0.004655200881851606,0.012996118849117385,0.016043895400110753
0.033,0.011398231134197582,0.017054734723085788,0.005891986607121715,0.00472186564912337,0.013259199345548147,0.016328518929376805
0.034,0.011655100634710222,0.017726634412389405,0.006058005987834732,0.0047859167127696865,0.013516364283206564,0.016605617936934075
0.035,0.011911398656696782,0.01839020748657266,0.006218885972100556,0.00484734197491923,0.013767675862600082,0.01687506887976216
0.036,0.01216703661987049,0.019045316753893014,0.006374625838888975,0.004906132748966656,0.014013207429193856,0.017136755647956574
0.037,0.01242192651210882,0.019691833613582264,0.006525230538111953,0.004962283731581356,0.014253043315312986,0.017390569633513184
0.038,0.012675980901399217,0.020329637986463853,0.00667071059737752,0.0050157929680391955,0.014487278656866507,0.017636409788217886
0.039,0.012929112946118194,0.020958618233959087,0.006811082020970274,0.005066661811125621,0.014716019185350789,0.01787418267078974
0.04,0.013181236403849666,0.021578671066115978,0.006946366181483033,0.005114894873899031,0.014939380995679485,0.018103802483443916
0.041,0.013432265638906529,0.02218970143936181,0.007076589704547459,0.0051604999766339185,0.01515749029042376,0.018325191098071257
0.042,0.013682115628682415,0.022791622444707938,0.007201784347133455,0.005203488088285641,0.015370483101045761,0.01853827807228823
0.043,0.013930701968933016,0.023384355187134234,0.007321986869904572,0.00524387326283041,0.015578504986699214,0.018743000655696427
0.044,0.01417794087807082,0.023967828656871533,0.0074372389041288504,0.005281672570835212,0.015781710711177482,0.018939303786782886
0.045,0.01442374920055396,0.024541979593286897,0.00754758681365026,0.005316906026606989,0.015980263898621155,0.01912714008096013
0.046,0.014668044409457731,0.025106752342050308,0.007653081552422639,0.005349596511262706,0.016174336668651246,0.019306469810274694
0.047,0.01491074460833527,0.025662098706218953,0.007753778518095808,0.005379769692053965,0.01636410925165968,0.019477260875312433
0.048,0.015151768532497835,0.02620797779182142,0.007849737402125648,0.005407453938271168,0.016549769585058036,0.019639488769814938
0.049,0.015391035549867146,0.026744355848461743,0.007941022036860944,0.00543268023404164,0.01673151289135635,0.019793136538510017
0.05,0.01562846566156537,0.02727120610539387,0.008027700240042733,0.0054554820883230175,0.016909541239010735,0.01993819472865446
0.051,0.015863979502408965,0.027788508603454276,0.008109843657137657,0.0054758954423780645,0.017084063087030834,0.020074661335784397
0.052,0.016097498341459317,0.028296250023211893,0.008187527601913719,0.005493958575001028,0.01725529281436811,0.020202541744157608
0.053,0.016328944082756407,0.028794423509725907,0.008260830895651439,0.005509712005749511,0.017423450235113186,0.020321848662343975
0.054,0.01655823926632378,0.029283028494382333,0.008329835705363504,0.005523198396420127,0.01758876010051832,0.020432602054372938
0.055,0.01678530706948609,0.02976207051436139,0.008394627381372335,0.0055344624509909065,0.01775145158883408,0.02053482906678486
0.056,0.017010071308488486,0.030231561030324757,0.008455294294570283,0.005543550814237901,0.01791175778391948,0.020628563951866113
0.057,0.01723245644035832,0.030691517242900073,0.008511927673663941,0.005550511969216955,0.018069915143571893,0.020713847987283558
0.058,0.017452387564915257,0.03114196190850544,0.008564621442681861,0.005555396133784414,0.018226162958548592,0.02079072939228027
0.059,0.01766979042682564,0.03158292315502597,0.008613472059001776,0.005558255156313596,0.018380742803319437,0.020859263240556085
0.06,0.017884591417614976,0.03201443429783732,0.008658578352128144,0.0055591424107489665,0.018533897979675498,0.020919511369937728
0.061,0.01809671757759792,0.0324365336566652,0.008700041363424935,0.0055581126911276105,0.018685872954389414,0.020971542288944656
0.062,0.018306096597747346,0.032849264373769775,0.008737964186983882,0.005555222105687961,0.018836912792169126,0.02101543108037207
0.063,0.018512656821583467,0.03325267423394706,0.008772451811785823,0.005550527970679866,0.01898726258517328,0.021051259302028304
0.064,0.018716327247200064,0.03364681548683892,0.00880361096529151,0.00554408870399128,0.019137166880368046,0.021079114884765646
0.065,0.018917037529555897,0.03403174467202366,0.008831549958578067,0.005535963718716898,0.019286869105999926,0.02109909202792882
0.066,0.0191147179831662,0.034407522447307645,0.008856378533117649,0.005526213316809383,0.019436610998439602,0.02111129109232207
0.067,0.01930929958535808,0.034774213420560265,0.00887820770927638,0.005514898582966659,0.019586632030622848,0.02111581849077526
0.068,0.019500713980306714,0.03513188598534312,0.008897149636594423,0.005502081278912003,0.019737168843282513,0.02111278657637697
0.069,0.01968889348411889,0.03548061216048872,0.00891331744589339,0.0054878237382166095,0.019888454680140798,0.02110231352843806
0.07,0.019873771091245298,0.035820467433683854,0.008926825103247639,0.0054721887618011545,0.02004071882821907,0.021084523236247557
0.071,0.02005528048247655,0.036151530609005555,0.008937787265853219,0.005455239514239618,0.020194186064416805,0.02105954518067668
0.072,0.0202333560347278,0.03647388365824831,0.008946319139830959,0.005437039420981356,0.020349076109501818,0.021027514313668623
0.073,0.02040793283276785,0.036787611575787554,0.008952536340003866,0.005417652066608913,0.0205056030906379,0.020988570935615306
0.074,0.02057894668302021,0.03709280223667628,0.008956554751688923,0.005397141094257407,0.020663975013551817,0.02094286057057007
0.075,0.02074633412956684,0.03738954625768577,0.008958490394537352,0.005375570106331195,0.02082439324540675,0.020890533839183448
0.076,0.020910032472519297,0.037677936861052974,0.008958459288447625,0.00535300256666091,0.02098705200940585,0.020831746329184882
0.077,0.021069979788967734,0.03795806974072782,0.008956577321567736,0.005329501704247777,0.02115213789210712,0.020766658463168455
0.078,0.02122611495674737,0.03823004293088465,0.008952960120401966,0.005305130418742234,0.021319829364398836,0.020695435363375054
0.079,0.021378377681258585,0.03849395667638189,0.008947722922042958,0.005279951187800963,0.021490296317063323,0.020618246713098712
0.08,0.021526708525549977,0.038749913304763225,0.008940980448559096,0.00525402597646168,0.021663699611835684,0.02053526661428581
0.081,0.02167104894384349,0.03899801709933137,0.008932846783574729,0.0052274161486688675,0.0218401906488332,0.02044667344085099
0.082,0.021811341318659302,0.039238374172814144,0.008923435251082103,0.005200182381075909,0.02201991095119081,0.02035264968721066
0.083,0.021947529001683123,0.03947109234117437,0.008912858296519499,0.0051723845792406775,0.02220299176770054,0.02025338181153885
0.084,0.022079556358500018,0.03969628099715698,0.008901227370146361,0.005144081796324051,0.022389553694230763,0.020149060073283338
0.085,0.0222073688172875,0.03991405098318538,0.008888652812749961,0.005115332154394868,0.02257970631469712,0.020039878364538733
0.086,0.022330912921516656,0.04012451446320978,0.008875243743731737,0.005086192768440708,0.022773547862362943,0.019926034034942315
0.087,0.02245013638666193,0.04032778479309123,0.008861107951641155,0.0050567196731811466,0.022971164902253947,0.019807727709823895
0.088,0.02256498816087878,0.04052397638909289,0.008846351787243016,0.005026967752777999,0.023172632035475434,0.0196851631014127
0.089,0.022675418489575383,0.040713204594047904,0.008831080059212753,0.004996990673534926,0.02337801162622074,0.01955854681300952
0.09,0.02278137898377114,0.04089558554079401,0.008815395932552877,0.004966840819676392,0.023587353552257304,0.01942808813617421
0.091,0.022882822692093453,0.04107123601254673,0.008799400829818503,0.0049365692322930355,0.023800694979668177,0.019293998841117453
0.092,0.022979704176216448,0.0412402733000416,0.008783194335236078,0.004906225551536022,0.024018060162606252,0.019156492960573753
0.093,0.023071979589496434,0.041402815055472574,0.008766874101796805,0.004875857962136696,0.024239460268780186,0.019015786567459066
0.094,0.0231596067585112,0.04155897914343101,0.008750535761401045,0.004845513142321178,0.02446489323133331,0.018872097546607482
0.095,0.02324254526716097,0.04170888348919457,0.008734272838122666,0.00481523621618329,0.024694343627704254,0.018725645360869698
0.096,0.023320756542940684,0.041852645924845736,0.008718176664657715,0.004785070709572898,0.024927782585979316,0.018576650811859444
0.097,0.02339420394495781,0.04199038403380472,0.008702336302025488,0.004755058509550059,0.025165167719172044,0.018425335795657437
0.098,0.02346285285326027,0.042122214994409386,0.00868683846260088,0.0047252398274482245,0.025406443087801368,0.01827192305381991
0.099,0.023526670759060227,0.042248255423164446,0.00867176743656693,0.004695653165582221,0.025651539191085298,0.018116635920074627
0.1,0.02358562735548139,0.042368621218254215,0.008657205021878223,0.004666335287628484,0.02590037298701819,0.017959698063106787
0.101,0.023639694628502583,0.04248342740390704,0.008643230457818552,0.004637321192697572,0.02615284794155628,0.01780133322584359
0.102,0.023688846947802645,0.042592787976214894,0.008629920362224312,0.004608644093113287,0.026408854107102045,0.017641764961663274
0.103,0.023733061157224025,0.04269681575101693,0.008617348672432655,0.00458033539590742,0.026668268230452426,0.01748121636800532
0.104,0.02377231666456537,0.042795622214418697,0.008605586590003262,0.004552424688031451,0.02693095389034922,0.01731990981793579
0.105,0.023806595530398305,0.042889317376433235,0.008594702529254645,0.004524939725276413,0.027196761664730625,0.017158066690292597
0.106,0.02383588255559949,0.04297800962810734,0.008584762069648127,0.004497906424881224,0.027465529327727112,0.016995907099079166
0.107,0.02386016536731512,0.04306180560235705,0.008575827912043449,0.004471348861799556,0.027737082076375753,0.016833649622804016
0.108,0.02387943450313718,0.04314081003860215,0.008567959838837857,0.004445289268585664,0.02801123278694857,0.01667151103450225
0.109,0.023893683493355678,0.043215125651192524,0.008561214677983894,0.004419748038849702,0.028287782300704317,0.016509706033225317
0.11,0.023902908941234584,0.04328485300159015,0.008555646270860341,0.0043947437342223925,0.028566519738782367,0.01634844697782902
0.111,0.02390711060131957,0.043350090374319146,0.00855130544395161,0.004370293094757915,0.02884722284586401,0.01618794362390742
0.112,0.02390629145581101,0.043410933656791134,0.008548239984283631,0.004346411052693972,0.029129658362132216,0.0160284028647121
0.113,0.023900457789027045,0.04346747622320624,0.008546494618576322,0.004323110749481176,0.029413582422967183,0.015870028476873917
0.114,0.023889619259948813,0.04351980882278407,0.008546110996100344,0.004300403555990954,0.029698740985724094,0.01571302087171485
0.115,0.023873788972793984,0.0435680194725959,0.008547127675255606,0.004278299095811225,0.02998487028285363,0.015557576852902679
0.116,0.02385298354551383,0.04361219335527369,0.008549580113907248,0.00425680527154089,0.030271697300544784,0.015403889381159455
0.117,0.02382722317606251,0.04365241272187727,0.00855350066351704,0.00423592829399667,0.03055894028199037,0.015252147346688314
0.118,0.02379653170625762,0.04368875680020289,0.008558918567097909,0.004215672714247237,0.030846309254294938,0.015102535349934476
0.119,0.023760936683049075,0.04372130170881076,0.008565859961002386,0.004196041458388593,0.031133506577962232,0.0149552334912496
0.12,0.02372046941703885,0.043750120377045225,0.008574347880537752,0.004177035864970828,0.03142022751781391,0.014810417169985204
0.121,0.023675165038138695,0.04377528247133035,0.008584402269384495,0.00415865572498087,0.031706160834100286,0.014668256893499362
0.122,0.0236250625483004,0.0437968543280431,0.00859603999278238,0.004140899324279111,0.03199098939246323,0.014528918096519223
0.123,0.023570204871283307,0.043814898893296116,0.0086092748544409,0.004123763488381001,0.032274390791305195,0.01439256097125917
0.124,0.023510638899422006,0.04382947567000099,0.008624117617130077,0.004107243629469631,0.03255603800501315,0.01425934030865218
0.125,0.0234464155373226,0.04384064067263422,0.008640576026913517,0.004091333795522957,0.032835600041391744,0.014129405351011648
0.126,0.023377589742358745,0.04384844639019788,0.008658654840994057,0.004076026721438155,0.033112742611575256,0.014002899656402007
0.127,0.023304220561772112,0.043852941757957904,0.008678355859147419,0.004061313882033244,0.033387128810606355,0.013879960974955969
0.128,0.02322637116612146,0.04385417213862936,0.008699677958718236,0.004047185546803122,0.03365841980678309,0.013760721137333704
0.129,0.023144108878787206,0.04385217931372185,0.008722617133145389,0.004033630836305984,0.03392627553778372,0.013645305955478002
0.13,0.02305750520123628,0.04384700148573673,0.008747166533969808,0.004020637780058198,0.034190355411484234,0.01353383513578295
0.131,0.022966635833780974,0.043838673291831935,0.00877331651625919,0.004008193375819064,0.03445031900928954,0.013426422204760145
0.132,0.022871580691605407,0.043827225829461636,0.008801054687362617,0.003996283650148918,0.034705826789716746,0.013323174447252268
0.133,0.022772423915862594,0.043812686694374166,0.008830365958886638,0.0039848937201240765,0.0349565407899179,0.013224192857207011
0.134,0.02266925387965353,0.04379508003122316,0.008861232601763696,0.003974007856090511,0.035202125322835925,0.013129572100986857
0.135,0.022562163188693612,0.04377442659691994,0.008893634304264156,0.00396360954533525,0.03544224766776318,0.013039400493152742
0.136,0.022451248676467785,0.04375074383673299,0.008927548232786672,0.0039536815565519344,0.035676578752204945,0.012953759984621031
0.137,0.02233661139369037,0.04372404597302233,0.008962949095253225,0.003944206004977425,0.035904793823115455,0.012872726163054222
0.138,0.022218356591915046,0.04369434410638979,0.008999809206938592,0.003935164418082668,0.036126573105755795,0.012796368265311232
0.139,0.022096593701169315,0.043661646328950296,0.009038098558574955,0.00392653780171306,0.03634160244861306,0.012724749201759644
0.14,0.021971436301506074,0.04362595784940346,0.009077784886580311,0.0039183067065874004,0.03654957395300811,0.012657925592242028
0.141,0.021843002088372244,0.043587281129604964,0.009118833745255276,0.003910451295074057,0.03675018658618702,0.012595947813487036
0.142,0.021711412831688703,0.04354561603237529,0.009161208580777678,0.0039029514081646583,0.03694314677683312,0.012538860057756507
0.143,0.021576794328513168,0.04350095998030083,0.00920487080680837,0.0038957866325613354,0.0371281689920646,0.012486700402515824
0.144,0.02143927634911794,0.04345330812525599,0.009249779881519003,0.0038889363677889117,0.03730497629510914,0.01243950089090407
0.145,0.02129899257626696,0.043402653528300965,0.009295893385870127,0.0038823798932428053,0.037473300882974576,0.012397287622767955
0.146,0.021156080537430455,0.04334898734950645,0.00934316710299948,0.0038760964350869334,0.037632884603552456,0.0123600808560153
0.147,0.02101068152963538,0.04329229904715483,0.009391555098611507,0.003870065232920275,0.0377834794516776,0.012327895118040012
0.148,0.02086294053661377,0.043232576585692586,0.009441009802281011,0.0038642656061325764,0.037924848043698785,0.012300739326963718
0.149,0.020713006137879516,0.043169806651760685,0.009491482089596154,0.0038586770198685747,0.03805676407009632,0.012278616922423881
0.15,0.020561030409342974,0.04310397487758693,0.009542921365070971,0.0038532791505172005,0.03817901272564245,0.012261526005617697
0.151,0.020407168815070816,0.04303506607096343,0.00959527564575519,0.003848051950638109,0.03829139111657841,0.012249459488292596
0.152,0.02025158008982345,0.042963064450947566,0.0096484916454608,0.003842975713232291,0.0383937086443008,0.012242405250360994
0.153,0.020094426112055627,0.04288795388832104,0.009702514859513461,0.0038380311352565187,0.03848578736509744,0.012240346305804287
0.154,0.019935871767135963,0.04280971814972588,0.009757289649926676,0.0038331993802737884,0.03856746232550611,0.012243260976511542
0.155,0.019776084800605366,0.042728341144281916,0.00981275933089241,0.003828462140125561,0.038638581872855245,0.012251123073668185
0.156,0.01961523566133444,0.042643807171407457,0.009868866254485983,0.0038238016955085812,0.038699007940483816,0.012263902086271717
0.157,0.019453497334459124,0.0425561011685553,0.009925551896490484,0.00381920097533951,0.038748616307049726,0.012281563376309564
0.158,0.019291045164002492,0.042465208957658006,0.009982756942246132,0.0038146436147915848,0.03878729682924392,0.012304068380091862
0.159,0.019128056665160962,0.04237111748921391,0.0100404213724174,0.0038101140118861417,0.03881495364715468,0.012331374815190713
0.16,0.01896471132634856,0.042273815083073395,0.010098484548549336,0.0038055973825185086,0.03883150536148168,0.012363436892397408
0.161,0.018801190401226065,0.04217329166507411,0.010156885298261947,0.0038010798137952362,0.03883688518176763,0.012400205532070349
0.162,0.01863767669105881,0.04206953899875556,0.010215561999913705,0.0037965483155592084,0.038831041044776395,0.01244162858420831
0.163,0.018474354317831364,0.041962550911497976,0.010274452666557748,0.003791990869978679,0.0388139357021115,0.012487651051545179
0.164,0.018311408488607663,0.04185232351458195,0.010333495029018567,0.003787396479072789,0.03878554677617587,0.012538215314923605
0.165,0.018149025251689467,0.04173885541682777,0.010392626617927144,0.003782755210038935,0.03874586678364309,0.012593261360170395
0.166,0.017987391245213452,0.04162214793162856,0.010451784844561721,0.0037780582382382854,0.038694903125726356,0.01265272700567457
0.167,0.01782669343892738,0.0415022052773345,0.010510907080353824,0.003773297887687328,0.0386326780446904,0.012716548129868147
0.168,0.017667118869971816,0.04137903477106334,0.010569930734947953,0.0037684676688975157,0.0385592285463008,0.012784658897831622
0.169,0.0175088543735493,0.04125264701608902,0.010628793332754632,0.0037635623139025466,0.038474606288274246,0.012856991986282698
0.17,0.017352086309388844,0.041123056082993346,0.010687432587999332,0.003758577808313773,0.03837887743521732,0.012933478806242162
0.171,0.017197000284915963,0.04099027968477064,0.010745786478326453,0.00375351142024874,0.03827212248091217,0.013014049722690192
0.172,0.0170437808760206,0.0408543393460675,0.01080379331705651,0.0037483617259845303,0.038154436039092625,0.013098634270525857
0.173,0.016892611346279503,0.04071526056671331,0.010861391824213178,0.003743128632194311,0.03802592660409153,0.013187161366129707
0.174,0.0167436733654423,0.04057307297964296,0.010918521196435183,0.0037378133946319326,0.03788671628294926,0.013279559513813943
0.175,0.016597146727941253,0.04042781050323245,0.01097512117587112,0.0037324186331372964,0.03773694050072948,0.013375757006432608
0.176,0.01645320907214009,0.04027951148796928,0.011031132118134274,0.0037269483428457695,0.03757674768087816,0.013475682119419397
0.177,0.016312035600999444,0.040128218857269804,0.011086495059381729,0.0037214079014986517,0.037406298902509974,0.013579263297527119
0.178,0.016173798804804917,0.039973980242143076,0.011141151782583425,0.003715804072768936,0.037225767536539625,0.013686429333566839
0.179,0.016038668186578318,0.03981684810929326,0.011195044883056731,0.003710145005536784,0.03703533886258859,0.013797109538488455
0.18,0.01590680999077316,0.03965687988216309,0.0112481178333488,0.0037044402290716764,0.03683520966856864,0.013911233902198481
0.181,0.015778386935838773,0.03949413805436135,0.011300315047543962,0.0036987006441043186,0.03662558783476427,0.01402873324455757
0.182,0.015653557951217985,0.03932869029488761,0.01135158194505859,0.003692938509802569,0.03640669190412445,0.014149539356033216
0.183,0.015532477919317552,0.039160609544543395,0.011401865013968544,0.003687167426700535,0.03617875064035332,0.014273585127517793
0.184,0.01541529742295793,0.03898997410287701,0.011451111873899886,0.0036814023156652624,0.03594200257528015,0.014400804668881785
0.185,0.015302162498773348,0.038816867704961316,0.01149927133850457,0.00367565939301889,0.03569669554690609,0.014531133415918456
0.186,0.015193214397001865,0.03864137958728236,0.011546293477538497,0.0036699561419635002,0.03544308622947761,0.014664508225419799
0.187,0.015088589348084306,0.03846360454203363,0.011592129678558074,0.003664311280477816,0.03518143965691148,0.014800867458173038
0.188,0.014988418336477806,0.038283642959145554,0.011636732708253378,0.0036587447258670906,0.03491202874086623,0.014940151049684621
0.189,0.014892826882076738,0.038101600855417375,0.011680056773441772,0.0036532775561505713,0.03463513378469484,0.015082300568453754
0.19,0.014801934829616841,0.037917589890180105,0.011722057581750676,0.003647931968467783,0.03435104199441931,0.015227259261649742
0.191,0.014715856146419633,0.037731727367027915,0.011762692402014404,0.0036427312346788074,0.034060046987750905,0.015374972088090019
0.192,0.014634698728819824,0.03754413622129708,0.011801920124392734,0.0036376996543271735,0.03376244830205883,0.015525385738450557
0.193,0.014558564217616593,0.037354944993096856,0.011839701320190589,0.0036328625051292645,0.033458550902079734,0.01567844864265735
0.194,0.014487547822902663,0.0371642877857676,0.011875998301324587,0.0036282459911538183,0.03314866468807623,0.015834110964414658
0.195,0.014421738158643742,0.0369723042096579,0.011910775179350661,0.003623877188859068,0.03283310400510403,0.01599232458284673
0.196,0.014361217087389206,0.036779139311103076,0.011943997923945586,0.0036197839911593995,0.03251218715402845,0.01615304306129121
0.197,0.014306059575483603,0.03658494348648772,0.011975634420727977,0.0036159950496933253,0.03218623590492848,0.016316221603388786
0.198,0.014256333559122585,0.03638987238131439,0.012005654528305928,0.003612539715458739,0.031855575013543296,0.016481816996739833
0.199,0.014212099821568118,0.03619408677428444,0.012034030134438899,0.003609447977972373,0.03152053174147359,0.01664978754451747
0.2,0.014173411881813903,0.03599775244649507,0.012060735211193063,0.0036067504031012565,0.031181435380949998,0.016820092985536557
0.201,0.014140315894973325,0.035801040035932846,0.012085745868953774,0.0036044780697061605,0.03083861678508433,0.016992694403392797
0.202,0.014112850564646106,0.03560412487748336,0.012109040409144733,0.00360266250523027,0.030492407904577957,0.01716755412540443
0.203,0.014091047067505644,0.035407186828687,0.01213059937549662,0.0036013356203605635,0.030143141331856766,0.017344635612194747
0.204,0.014074928990337363,0.0352104100814744,0.012150405603706473,0.0036005296428853243,0.029791149853549415,0.017523903338833465
0.205,0.014064512279746711,0.03501398296014863,0.012168444269329866,0.0036002770508689846,0.02943676601215341,0.01770532266850963
0.206,0.01405980520473769,0.034818097705976284,0.012184702933751549,0.0036006105052636714,0.029080321677659345,0.017888859719742602
0.207,0.014060808332334456,0.034622950248904515,0.012199171588086042,0.003601562782073746,0.028722147629832034,0.01807448122815103
0.208,0.01406751451638216,0.03442873996709337,0.012211842694861868,0.003603166704185504,0.028362573151777308,0.01826215440379046
0.209,0.014079908899626601,0.034235669435080045,0.012222711227336255,0.003605455072971284,0.028001925635352094,0.018451846785045644
0.21,0.014097968929143698,0.03404394416143423,0.012231774706271514,0.0036084605997774117,0.027640530198901465,0.018643526090035608
0.211,0.01412166438516949,0.033853772316729334,0.012239033233982607,0.0036122158374080663,0.027278709317734105,0.01883716006646331
0.212,0.014150957423361232,0.03366536445258381,0.012244489525439573,0.003616753111719846,0.026916782467684388,0.019032716340812668
0.213,0.014185802630491361,0.033478933212456645,0.01224814893618069,0.0036221044534423597,0.026555065782056107,0.019230162267759327
0.214,0.014226147093536244,0.03329469303482525,0.012250019486763717,0.0036283015303378444,0.026193871722190176,0.019429464780619334
0.215,0.01427193048207447,0.03311285984932672,0.012250111883455508,0.003635375579807828,0.025833508761837612,0.019630590243617296
0.216,0.014323085143860107,0.03293365076640081,0.012248439534837964,0.0036433573420480013,0.025474281085451335,0.019833504306719
0.217,0.014379536213389218,0.03275728376093951,0.012245018563992415,0.0036522769938452894,0.02511648830044471,0.020038171763748423
0.218,0.014441201733234503,0.032583977350444805,0.012239867815916594,0.0036621640831064938,0.02476042516340695,0.02024455641449979
0.219,0.01450799278788216,0.032413950268235056,0.012233008859830603,0.003673047464208831,0.02440638132021673,0.020452620931558526
0.22,0.014579813649762649,0.03224742113230842,0.012224465986041681,0.003684955234269929,0.024054641059951226,0.02066232673254897
0.221,0.014656561937119951,0.03208460811053514,0.012214266197057835,0.003697914670444395,0.023705483082444922,0.02087363385851786
0.222,0.014738128783311743,0.03192572858287851,0.012202439192658152,0.003711952168359855,0.023359180279309708,0.02108650085913819
0.223,0.014824399017077886,0.03177099880133218,0.012189017348637914,0.003727093181804176,0.023015999528186296,0.02130088468538763
0.224,0.014915251353259464,0.03162063354823207,0.01217403568895147,0.003743362163768768,0.022676201499955514,0.021516740590331054
0.225,0.015010558593397031,0.03147484579358647,0.012157531850985826,0.003760782508943776,0.022340040478594458,0.02173402203862277
0.226,0.01511018783558672,0.03133384635208097,0.01213954604372553,0.003779376497751994,0.02200776419331509,0.021952680625334585
0.227,0.01521400069292835,0.03119784354044233,0.012120120998621663,0.003799165241999763,0.02167961366257408,0.02217266600469974
0.228,0.015321853519864025,0.031067042835859503,0.012099301913049249,0.0038201686322145655,0.021355823049496885,0.022393925829332924
0.229,0.015433597645680948,0.03094164653614239,0.012077136386316027,0.003842405286730988,0.021036619528215342,0.022616405700443022
0.23,0.01554907961443884,0.030821853422259935,0.01205367434826535,0.0038658925025810012,0.020722223160574427,0.022840049129502795
0.231,0.015668141430581085,0.030707858423873118,0.012028967980598609,0.0038906462082418923,0.020412846782626615,0.023064797511779395
0.232,0.015790620809499313,0.030599852288487557,0.012003071631125193,0.00391668091829444,0.02010869590031945,0.023290590112060822
0.233,0.015916351432337345,0.030498021254876457,0.011976041721217207,0.0039440096900427955,0.019809968593799264,0.023517364062835257
0.234,0.016045163204330522,0.030402546731429295,0.0119479366467887,0.003972644082144588,0.01951685542978081,0.02374505437509574
0.235,0.016176882515972123,0.030313604980052245,0.011918816673136427,0.0040025941152947225,0.019229539381440054,0.02397359396185556
0.236,0.016311332506282163,0.030231366806209307,0.011888743823985743,0.004033868235000537,0.01894819575527032,0.024202913674371405
0.237,0.016448333327439453,0.030155997255677428,0.011857781765095,0.004066473276482423,0.018672992124325237,0.024432942350982895
0.238,0.016587702410043915,0.03008765531859115,0.011825995682789083,0.004100414431734392,0.018404088267278802,0.024663606878389328
0.239,0.016729254728316264,0.030026493641344878,0.011793452157813926,0.004135695218781496,0.01814163611276599,0.024894832265099188
0.24,0.01687280306461689,0.029972658246890216,0.011760219034924023,0.004172317453171216,0.017885779688518295,0.02512654172670537
0.241,0.017018158272760073,0.029926288263927108,0.011726365288630101,0.004210281221731159,0.01763665507488292,0.025358656782563892
0.242,0.01716512953968962,0.029887515665464423,0.011691960885543301,0.0042495848586168675,0.017394390362420905,0.025591097363396126
0.243,0.017313524645144376,0.029856465017223704,0.011657076643756557,0.004290224923663932,0.017159105613411003,0.02582378192930486
0.244,0.017463150218964683,0.029833253236364723,0.011621784089707704,0.00433219618304889,0.016930912827224934,0.026056627597686514
0.245,0.017613811995678463,0.02981798936101376,0.011586155312975542,0.004375491592252438,0.016709915909669085,0.026289550280511755
0.246,0.01776531506597551,0.029810774331080588,0.011550262819470173,0.004420102281305575,0.01649621064648536,0.026522464830413872
0.247,0.017917464124650555,0.02981170078086162,0.011514179383490914,0.004466017542285097,0.016289884681249815,0.026755285194967587
0.248,0.018070063714580312,0.029820852843933578,0.011477977899136104,0.00451322481901098,0.016091017497909147,0.026987924578478303
0.249,0.018222918466299864,0.029838305970833236,0.011441731231553053,0.004561709698885975,0.015899680408177984,0.027220295610557773
0.25,0.018375833332761993,0.029864126759996317,0.01140551206850819,0.004611455906807673,0.01571593654400633,0.02745231052075163
0.251,0.018528613818906973,0.02989837280239824,0.011369392772738103,0.004662445301076157,0.015539840855325582,0.027683881318501986
0.252,0.018681066205742062,0.029941092540301275,0.011333445235516727,0.004714657871218225,0.015371440113296738,0.02791491997774913
0.253,0.01883299776871859,0.029992325140472523,0.011297740731845822,0.0047680717376558275,0.015210772919310972,0.028145338625478647
0.254,0.018984216990279315,0.0300521003822072,0.011262349777644768,0.004822663153164487,0.015057869720015118,0.02837504973350511
0.255,0.01913453376651111,0.030120438560480904,0.011227341989282255,0.004878406506094833,0.014912752828638574,0.028603966312776726
0.256,0.01928375960786793,0.030197350404550554,0.011192785945758633,0.004935274325360752,0.014775436452883678,0.02883200210951673
0.257,0.01943170783392691,0.030282837012303512,0.011158749053814645,0.004993237287226049,0.014645926729619506,0.029059071802595038
0.258,0.019578193762119424,0.030376889800601912,0.01112529741620979,0.00505226422394815,0.014524221766599156,0.02928509120162023
0.259,0.019723034890364234,0.030479490471791545,0.01109249570338142,0.005112322134362448,0.014410311691406243,0.02950997744531155
0.26,0.019866051073545304,0.030590610996465886,0.011060407028665615,0.0051733761965102555,0.014304178707822019,0.02973364919972301
0.261,0.02000706469383051,0.03071021361252168,0.011029092827236155,0.005235389782421719,0.014205797159782955,0.029956026855851157
0.262,0.020145900824904472,0.0308382508405216,0.01099861273890008,0.00529832447516212,0.014115133603068195,0.030177032726094153
0.263,0.02028238739026006,0.030974665515377833,0.010969024494875572,0.00536214008823976,0.014032146884820467,0.03039659123897517
0.264,0.020416355315735046,0.03111939083436001,0.010940383808667223,0.005426794687460048,0.013956788230966813,0.030614629131521215
0.265,0.020547638676490697,0.03127235042139226,0.01091274427114326,0.005492244615295759,0.013889001341568454,0.030831075638703204
0.266,0.020676074838619895,0.0314334584075382,0.010886157249909979,0.005558444517829203,0.013828722494094479,0.031045862679378557
0.267,0.020801504595552727,0.031602619527494866,0.010860671793072478,0.0056253473743097466,0.013775880654584002,0.03125892503820938
0.268,0.020923772299397982,0.03177972923184038,0.010836334537469319,0.005692904529360035,0.013730397596639484,0.031470200543043544
0.269,0.021042725987327485,0.0319646738147133,0.010813189621471639,0.005761065727856063,0.01369218802818359,0.031679630237242636
0.27,0.021158217503095114,0.03215733055654949,0.010791278602442724,0.0058297791525000146,0.013661159725913858,0.03188715854642809
0.271,0.021270102613794653,0.032357567881465196,0.010770640378959414,0.005898991464100979,0.013637213677396856,0.0320927334390995
0.272,0.021378241121989116,0.032565245528844905,0.010751311117899605,0.005968647844575798,0.013620244230747374,0.03229630658055146
0.273,0.021482496973368438,0.03278021473866522,0.010733324186500724,0.006038692042677208,0.013610139251835799,0.03249783347947265
0.274,0.02158273836010709,0.03300231845006279,0.010716710089495048,0.006109066422446011,0.013606780288959258,0.032697273626562516
0.275,0.021678837820108102,0.03323139151263337,0.01070149641142922,0.006179712014368864,0.013610042744901697,0.03289459062446192
0.276,0.021770672332340223,0.0334672609099202,0.010687707764274025,0.006250568569205703,0.013619796056296644,0.033089752308271006
0.277,0.021858123408488275,0.03370974599450611,0.01067536574042386,0.006321574614433242,0.013635903880196415,0.0332827308559243
0.278,0.021941077181126034,0.03395865873406704,0.010664488871175257,0.006392667513235167,0.013658224287740606,0.033473502887714675
0.279,0.02201942448858328,0.03421380396767349,0.010655092590763585,0.006463783525956833,0.013686609964799944,0.033662049554290745
0.28,0.02209306095662855,0.03447497967154048,0.010647189206027374,0.006534857873933872,0.013720908419448674,0.03384835661247167
0.281,0.022161887077040247,0.034741977233329176,0.01064078787175941,0.006605824805600645,0.013760962196100231,0.03403241448822059
0.282,0.022225808283090825,0.035014581734010834,0.010635894571793498,0.006676617664784018,0.0138066090961381,0.03421421832612445
0.283,0.022284735021912593,0.03529257223624364,0.010632512105867697,0.006747168961088192,0.013857682404883203,0.03439376802478286
0.284,0.022338582823648798,0.03557572207820442,0.010630640082298672,0.006817410442278218,0.013914011124743872,0.034571068257622434
0.285,0.022387272367231738,0.03586379917184425,0.010630274916493055,0.006887273168577195,0.0139754202143816,0.0347461284787981
0.286,0.022430729542584356,0.03615656630455725,0.010631409835306577,0.006956687588804552,0.014041730833697448,0.03491896291399407
0.287,0.022468885509016583,0.03645378144323701,0.010634034887239947,0.007025583618294719,0.014112760594411296,0.035089590536088525
0.288,0.022501676749575185,0.03675519803965826,0.0106381369584343,0.007093890718544144,0.014188323815975826,0.03525803502581237
0.289,0.02252904512109727,0.037060565336105064,0.010643699794400758,0.007161537978542725,0.014268231786538159,0.035424324717736495
0.29,0.022550937899704915,0.03736962867020601,0.010650704027390196,0.007228454197755048,0.014352293028630215,0.03558849253218644
0.291,0.02256730782145475,0.037682129778028,0.01065912720928213,0.007294567970723888,0.014440313569234234,0.035750575893994475
0.292,0.022578113117818693,0.03799780709457781,0.010668943849847217,0.007359807773269279,0.014532097213840958,0.03591061663928609
0.293,0.02258331754562741,0.03831639605091348,0.010680125460216645,0.007424102050251318,0.014627445824105708,0.036068660911681906
0.294,0.0225828904110705,0.03863762936706015,0.01069264060137515,0.007487379304858457,0.014726159598712884,0.03622475904935574
0.295,0.02257680658733174,0.03896123733988047,0.010706454937485173,0.0075495681893803955,0.014828037357068904,0.03637896546436067
0.296,0.022565046525450928,0.03928694812500054,0.010721531293848504,0.0076105975974268235,0.014932876825441985,0.03653133851555905
0.297,0.022547596258048846,0.03961448801186718,0.010737829719313443,0.0076703967575568344,0.015040474925151225,0.03668194037639307
0.298,0.02252444739562317,0.03994358169101719,0.010755307552933304,0.007728895328284696,0.015150628062385246,0.03683083689862378
0.299,0.022495597115205802,0.04027395251266021,0.010773919494677453,0.0077860234944237515,0.015263132419209336,0.03697809747305995
0.3,0.022461048141244198,0.04060532273568874,0.010793617679995166,0.007841712064722579,0.015377784245300345,0.03712379488820476
0.301,0.022420808718615237,0.04093741376623651,0.010814351758036913,0.007895892570737957,0.015494380149930579,0.037268005187672704
0.302,0.02237489257770777,0.0412699463849424,0.010836068973342213,0.007948497366878329,0.015612717393710625,0.03741080752716534
0.303,0.02232331889154936,0.041602640962166544,0.010858714250801505,0.00799945973153862,0.01573259417960265,0.037552284031731345
0.304,0.022266112225030762,0.04193521766054279,0.010882230283690179,0.008048713969232672,0.015853809942727462,0.03769251965396171
0.305,0.022203302476391767,0.042267396624410536,0.010906557624563475,0.008096195513615229,0.015976165638497197,0.03783160203368187
0.306,0.022134924811238115,0.04259889815582414,0.01093163477880748,0.00814184103127302,0.016099464028601497,0.03796962135959791
0.307,0.022061019589424927,0.04292944287698561,0.010957398300678397,0.008185588526154246,0.016223509964360543,0.03810667023323971
0.308,0.021981632285156833,0.04325875187911018,0.01098378289172424,0.008227377444497386,0.016348110666940516,0.038242843535429505
0.309,0.021896813400632258,0.043586546857947085,0.0110107215015446,0.008267148780113281,0.016473076003909546,0.038378238295410975
0.31,0.021806618373516308,0.04391255023643192,0.011038145430881073,0.008304845179867598,0.01659821876159593,0.038512953562726195
0.311,0.021711107478475163,0.04423648527518756,0.011065984437039652,0.008340411049201786,0.016723354912697476,0.038647090281941625
0.312,0.02161034572295463,0.044558076171755945,0.01109416684163903,0.00837379265751794,0.01684830387858753,0.0387807511703827
0.313,0.021504402737347945,0.044877048149517956,0.011122619640669299,0.008404938243237087,0.016972888785775367,0.038914040599095624
0.314,0.021393352659683364,0.04519312753727779,0.011151268616840522,0.00843379811832289,0.017096936716000724,0.03904706447727979
0.315,0.02127727401497183,0.04550604184049732,0.011180038454200882,0.00846032477204424,0.01722027894945712,0.039179930140427074
0.316,0.021156249589385053,0.04581551980519018,0.01120885285500533,0.008484472973730622,0.0173427512006335,0.039312746242396286
0.317,0.021030366299479283,0.04612129147552888,0.01123763465881109,0.008506199874253858,0.017464193846244012,0.03944562265167964
0.318,0.020899715056733686,0.04642308824626829,0.011266305963760615,0.0085254651059489,0.017584452144694448,0.03957867035220819
0.319,0.020764390627722628,0.04672064291112786,0.011294788249986197,0.008542230880663844,0.017703376446519262,0.03971200134920055
0.32,0.020624491490273532,0.047013689708302546,0.01132300250503901,0.00855646208560432,0.01782082239521461,0.03984572858074484
0.321,0.02048011968596787,0.04730196436430927,0.01135086935121776,0.008568126376612037,0.017936651117889203,0.039979965835944015
0.322,0.020331380669329366,0.04758520413743338,0.011378309174655746,0.0085771942684943,0.018050729405160598,0.04011482768050048
0.323,0.020178383154026567,0.04786314786209489,0.011405242256022864,0.008583639222003002,0.018162929879749774,0.040250429390578185
0.324,0.0200212389564043,0.04813553599546835,0.011431588902706999,0.008587437727049691,0.01827313115327387,0.04038688689569759
0.325,0.019860062836642267,0.04840211066764437,0.011457269582348611,0.008588569381738636,0.018381217970789,0.040524316731320426
0.326,0.019694972337810042,0.04866261573652845,0.011482205057603724,0.008587016966800863,0.018487081342666394,0.04066283600167909
0.327,0.01952608762304914,0.048916796848563204,0.01150631652199858,0.008582766515015609,0.01859061866338674,0.04080256235330404
0.328,0.01935353131108205,0.04916440150624924,0.011529525736714863,0.00857580737520922,0.018691733816826577,0.04094361395960002
0.329,0.019177428310241156,0.04940517914332371,0.01155175516811396,0.008566132270426775,0.018790337267605838,0.04108610951671778
0.33,0.018997905651233334,0.04963888120832765,0.011572928125778578,0.008553737349886018,0.018886346138069922,0.04123016825086327
0.331,0.01881509231890048,0.049865261257157595,0.0115929689008238,0.008538622234355992,0.018979684270485818,0.041375909937085356
0.332,0.01862911908328616,0.05008407505506724,0.011611802904207666,0.008520790054655114,0.019070282274045412,0.041523454929489334
0.333,0.01844011833035746,0.05029508068847043,0.011629356804753225,0.00850024748302786,0.019158077556300893,0.04167292420273646
0.334,0.018248223892753372,0.05049803868680123,0.01164555866658059,0.008477004757231966,0.01924301433870814,0.04182443940460459
0.335,0.018053570880943354,0.05069271215461628,0.011660338085640858,0.008451075697254614,0.019325043656021477,0.04197812291929521
0.336,0.017856295515188043,0.050878866914076955,0.011673626325045948,0.008422477714678694,0.019404123339383225,0.04213409794107011
0.337,0.01765653495869248,0.051056271657912815,0.011685356448900631,0.00839123181482621,0.019480217983100307,0.04229248855768492
0.338,0.01745442715232008,0.051224698112924176,0.011695463454364799,0.008357362591893569,0.01955329889527978,0.042453419842962366
0.339,0.017250110651194573,0.05138392121401574,0.011703884401702022,0.008320898217348707,0.019623344032665323,0.04261701795772765
0.34,0.017043724463470723,0.05153371928866164,0.011710558542097028,0.00828187042188427,0.01969033792015385,0.042783410258215894
0.341,0.01683540789151618,0.05167387425159404,0.011715427443040891,0.008240314471224813,0.019754271555573768,0.04295272541095159
0.342,0.01662530037572488,0.05180417180940227,0.01171843511108498,0.008196269136079671,0.019815142300376017,0.04312509351298629
0.343,0.016413541341176636,0.05192440167465781,0.011719528111758963,0.00814977665652426,0.019872953756928723,0.04330064621626745
0.344,0.016200270047358134,0.052034357789180044,0.011718655686444465,0.008100882701087081,0.01992771563312078,0.043479516854813216
0.345,0.015985625441154803,0.05213383855614527,0.011715769865999067,0.008049636320822052,0.019979443594974024,0.043661840573309456
0.346,0.01576974601330594,0.052222647080883866,0.011710825580933277,0.007996089898656845,0.020028159107943526,0.043847754455752785
0.347,0.015552769658494734,0.05230059142034215,0.011703780767955627,0.007940299094324765,0.020073889267561693,0.04403739765283934
0.348,0.015334833539230524,0.05236748484124983,0.011694596472717061,0.007882322785202766,0.02011666662006208,0.04423091150690659
0.349,0.015116073953676343,0.05242314608700963,0.011683236948598597,0.007822223003383694,0.020156528973599434,0.04442843967331941
0.35,0.014896626207573744,0.052467399653223834,0.011669669751387349,0.007760064869304374,0.020193519200653633,0.04463012823722364
0.351,0.01467662449040844,0.05250007607162216,0.01165386582967899,0.007695916522236953,0.020227685032166143,0.044836125824581276
0.352,0.014456201755939839,0.0525210122019898,0.011635799610840922,0.0076298490479344725,0.020259078843922345,0.04504658370637002
0.353,0.01423548960718988,0.05253005153153546,0.011615449082373545,0.007561936403705841,0.02028775743568187,0.04526165589477985
0.354,0.014014618185957168,0.05252704448099591,0.011592795868509434,0.007492255341179887,0.020313781803583137,0.045481499230168934
0.355,0.013793716066893228,0.05251184871663859,0.011567825301885225,0.007420885327002425,0.020337216906400144,0.04570627345746551
0.356,0.013572910156153048,0.05248432946719095,0.011540526490109929,0.0073479084616940825,0.02035813142628812,0.04593614129063697
0.357,0.013352325594616594,0.05244435984459482,0.011510892377040165,0.007273409396879329,0.020376597524700463,0.04617126846379491
0.358,0.013132085665671806,0.052391821167358514,0.011478919798559547,0.007197475251077897,0.02039269059418552,0.0464118237674687
0.359,0.012912311707545315,0.05232660328515848,0.011444609532645578,0.0071201955242289686,0.02040648900678199,0.04665797906858956
0.36,0.012693123030158637,0.052248604903238204,0.011407966343490514,0.007041662011097277,0.020418073859727506,0.04690990931280111
0.361,0.012474636836473237,0.05215773390509652,0.011368999019419875,0.006961968713690074,0.020427528719173565,0.0471677925078274
0.362,0.012256968148268209,0.0520539076719742,0.011327720404327538,0.006881211752796654,0.020434939362560665,0.04743180968673252
0.363,0.012040229736271245,0.051937053397718154,0.01128414742233041,0.006799489278750721,0.020440393520256086,0.047702144849961686
0.364,0.011824532054543136,0.051807108397676424,0.011238301095348926,0.006716901381510562,0.020443980617007352,0.047978984885057994
0.365,0.011609983179002317,0.05166402041031705,0.011190206553343143,0.0066335500001507884,0.020445791513731697,0.048262519462930094
0.366,0.011396688749966077,0.051507747890260434,0.011139893036969247,0.006549538831859672,0.020445918250150956,0.048552940909542694
0.367,0.01118475191857384,0.0513382602913722,0.011087393892458278,0.006464973240537274,0.020444453788781403,0.04885044405192296
0.368,0.010974273296947586,0.05115553833849545,0.011032746558553625,0.006379960165092049,0.020441491760785933,0.04915522603739636
0.369,0.010765350911942292,0.05095957428632876,0.010975992545376463,0.006294608027536448,0.02043712621418759,0.04946748612497311
0.37,0.010558080162348578,0.05075037216390058,0.010917177405117662,0.006209026640982916,0.020431451364933514,0.049787425447818445
0.371,0.010352553779428258,0.05052794800307355,0.010856350694481235,0.006123327117637907,0.020424561351287215,0.050115246745771586
0.372,0.010148861790688008,0.050292330049546745,0.010793565928837083,0.006037621776883639,0.020416549992010116,0.05045115406691963
0.373,0.009947091486821314,0.050043558954895456,0.010728880528091215,0.0059520240535301736,0.020407510548767986,0.050795352437280714
0.374,0.009747327391764905,0.04978168794826756,0.010662355754346816,0.005866648406319416,0.020397535493172476,0.05114804749773575
0.375,0.00954965123581603,0.04950678298641801,0.010594056641490622,0.005781610226768029,0.02038671627885304,0.0515094451075259
0.376,0.009354141931744211,0.04921892288080621,0.010524051916881858,0.005697025748441836,0.020375143118953765,0.051879750913957676
0.377,0.009160875553815027,0.04891819940051493,0.010452413915347836,0.005613011956755198,0.020362904769454994,0.05225916988843103
0.378,0.008969925319629675,0.04860471734978695,0.01037921848571013,0.00552968649938643,0.020350088318720743,0.05264790582944246
0.379,0.008781361574674509,0.048278594619035456,0.010304544890082076,0.005447167597398526,0.02033677898366095,0.05304616083369496
0.38,0.008595251779473042,0.04793996220828178,0.010228475696193345,0.005365573957153445,0.020323059912869146,0.05345413473681035
0.381,0.008411660499243478,0.047588964222099316,0.010151096663012968,0.005285024683103992,0.020309011997055856,0.053872024525413495
0.382,0.008230649395984294,0.04722575783525735,0.010072496619962464,0.005205639191537855,0.020294713687052532,0.05430002372259148
0.383,0.00805227722292849,0.046850513228344035,0.009992767340039054,0.005127537125336219,0.020280240819612695,0.05473832174894552
0.384,0.007876599821317545,0.046463413492735285,0.009912003407204668,0.00505083826979897,0.02026566645119054,0.05518710326163257
0.385,0.007703670119449914,0.046064654504429106,0.009830302078429857,0.004975662469582442,0.02025106069983742,0.055646547473913434
0.386,0.007533538133960347,0.04565444476651244,0.00974776314079999,0.004902129546793511,0.020236490595325358,0.056116827457790563
0.387,0.007366250973288478,0.0452330052203369,0.009664488764091034,0.004830359220283777,0.020222019937575792,0.05659810943234975
0.388,0.007201852843299063,0.04480056902579608,0.0095805833492105,0.004760471026187781,0.020207709163431346,0.05709055204040823
0.389,0.00704038505502157,0.044357381311384135,0.009496153372884062,0.004692584239747158,0.020193615221756403,0.05759430561600016
0.39,0.006881886034480495,0.043903698894939405,0.009411307228953556,0.004626817798456582,0.020179791456799684,0.058109511445109535
0.391,0.0067263913345882555,0.04343978997610903,0.009326155066639216,0.004563290226557679,0.020166287499716162,0.058636301021938106
0.392,0.006573933649071714,0.04296593380163624,0.00924080862611046,0.004502119560895891,0.020153149168132874,0.05917479530291718
0.393,0.006424542828405722,0.042482420304649444,0.009155381071705014,0.004443423278144416,0.020140418373641656,0.059725103960661344
0.394,0.006278245897733485,0.04198954971926744,0.009069986823132026,0.004387318223389878,0.02012813303709286,0.06028732464010374
0.395,0.006135067076759242,0.04148763217198951,0.008984741384987662,0.004333920540066132,0.02011632701154425,0.06086154221910734
0.396,0.005995027801598706,0.04097698725145268,0.00889976117490116,0.004283345601214915,0.020105030012706318,0.061447828075883976
0.397,0.005858146748566059,0.04045794355820709,0.008815163350618308,0.004235707942045225,0.02009426755673917,0.06204623936557012
0.398,0.00572443985986701,0.03993083823622366,0.00873106563632011,0.004191121193758005,0.02008406090529558,0.06265681830830215
0.399,0.005593920371160448,0.03939601648791026,0.008647586148467027,0.004149698018598727,0.020074427017746584,0.06327959149108545
0.4,0.005466598840949423,0.03885383107443376,0.008564843221449644,0.004111550046096405,0.020065378510552595,0.06391456918565229
0.401,0.005342483181764326,0.0383046418030942,0.008482955233310665,0.0040767878104431285,0.020056923623755153,0.06456174468438455
0.402,0.005221578693102593,0.03774881500338825,0.008402040431782058,0.0040455206889648135,0.020049066194569126,0.06522109365629156
0.403,0.0051038880960866655,0.03718672299326785,0.008322216760862916,0.004017856841632528,0.020041805638051514,0.065892573525002
0.404,0.00498941156979656,0.03661874353697141,0.008243601688157152,0.003993903151564081,0.020035136934811616,0.06657612287072338
0.405,0.004878146789229178,0.03604525929569834,0.00816631203319772,0.003973765166466981,0.020029050625716492,0.06727166085810536
0.406,0.004770088964835618,0.03546665727232984,0.008090463797000421,0.003957547040976724,0.02002353281354314,0.06797908669191287
0.407,0.004665230883590857,0.03488332825138234,0.008016171993108917,0.003945351479847799,0.020018565171533345,0.0686982791023884
0.408,0.004563562951558611,0.03429566623540188,0.007943550480410759,0.003937279681956256,0.0200141249588119,0.06942909586215501
0.409,0.004465073237926699,0.03370406787904053,0.00787271179801944,0.003933431285070616,0.02001018504262849,0.07017137333646045
0.41,0.004369747520498992,0.03310893192208278,0.007803767002524629,0.00393390431134305,0.020006713927379193,0.07092492606848776
0.411,0.004277569332632757,0.032510658622720914,0.007736825507907661,0.003938795113467399,0.020003675790361563,0.07168954640137802
0.412,0.0041885200116041875,0.0319096491924249,0.0076719949284030885,0.003948198321446408,0.020001030524220743,0.07246500413853339
0.413,0.004102578748373659,0.03130630523380334,0.007609380924564082,0.003962206789908718,0.01999873378604886,0.0732510462436711
0.414,0.004019722638709332,0.03070102818287879,0.007549087052763725,0.003980911545916025,0.019996737053100424,0.07404739658197185
0.415,0.003939926735615564,0.030094218757186268,0.007491214618337838,0.004004401737199503,0.019994987685081858,0.07485375570353826
0.416,0.003863164103002195,0.029486276411049835,0.007435862532549683,0.004032764580760032,0.019993428992966,0.07566980067030396
0.417,0.0037894058705225087,0.028877598799310948,0.007383127173533164,0.004066085311760022,0.01999200031427597,0.07649518492754268
0.418,0.0037186212895017673,0.0282685812506836,0.007333102251348457,0.004104447132627186,0.019990637094784637,0.07732953822120833
0.419,0.0036507777898758037,0.027659616251807472,0.007285878677261562,0.004147931162282593,0.019989270976593688,0.0781724665624392
0.42,0.0035858410380612995,0.027051092942972726,0.007241544437337645,0.004196616385395778,0.019987829892586968,0.07902355224061683
0.421,0.0035237749956845885,0.026443396626407652,0.007200184470417992,0.004250579601558773,0.019986238167280217,0.07988235388633949
0.422,0.003464541979100073,0.025836908287955686,0.007161880550531278,0.00430989537425932,0.01998441662409611,0.08074840658556039
0.423,0.003408102719629449,0.025232004132917134,0.007126711173770428,0.004374635979521448,0.019982282699082518,0.08162122204599934
0.424,0.003354416424449478,0.0246290551367846,0.007094751449647745,0.004444871354069337,0.01997975056108437,0.082500288816805
0.425,0.0033034408380525093,0.024028426611553588,0.007066072996926503,0.0045206690428584466,0.01997673123838981,0.08338507256232841
0.426,0.0032551323042035625,0.02343047778823644,0.007040743843918101,0.004602094145806638,0.019973132751893705,0.0842750163907441
0.427,0.0032094458283211877,0.022835561416148096,0.007018828333227102,0.004689209263546513,0.019968860254843675,0.08516954123809883
0.428,0.003166335140214493,0.0222440233794683,0.007000387030916902,0.004782074442007477,0.019963816179249163,0.08606804630817452
0.429,0.0031257527571130614,0.021656202331523277,0.006985476640054858,0.004880747115622109,0.019957900389038226,0.08696990956833628
0.43,0.0030876500469297695,0.021072429347177134,0.006974149918580289,0.0049852820489378075,0.01995101034003355,0.08787448830130727
0.431,0.003051977291700164,0.02049302759367874,0.006966455601427576,0.005095731276402728,0.01994304124678749,0.08878111971257593
0.432,0.003018683751146532,0.019918312020266213,0.006962438326835534,0.005212144040085352,0.019933886256274732,0.0896891215929029
0.433,0.0029877177263185326,0.019348589066781184,0.006962138566788101,0.005334566725079508,0.019923436628401972,0.09059779303515508
0.434,0.0029590266232633706,0.01878415639148862,0.006965592561560511,0.005463042792340743,0.019911581923258575,0.09150641520443924
0.435,0.0029325570166763865,0.01822530261823827,0.00697283225838398,0.005597612708697446,0.019898210194993517,0.09241425216023774
0.436,0.0029082547134783067,0.01767230710304259,0.006983885254280307,0.005738313873785098,0.019883208192155007,0.09332055172898143
0.437,0.002886064816260162,0.017125439720086948,0.006998774743146016,0.005885180543666022,0.019866461564272037,0.09422454642524565
0.438,0.002865931786533759,0.01658496066713322,0.00701751946717986,0.006038243750915306,0.019847855074400438,0.09512545441952555
0.439,0.0028477995077261864,0.016051120290226983,0.007040133672749849,0.0061975312209684354,0.019827272817307832,0.09602248055031398
0.44,0.0028316113478603472,0.015524158927569589,0.0070666270707899406,0.006363067284537051,0.01980459844293537,0.09691481737795976
0.441,0.002817310221867147,0.015004306772370178,0.007097004801804564,0.006534872785917422,0.019779715384751345,0.09780164627751797
0.442,0.002804838653476612,0.014491783754448795,0.007131267405544353,0.006712964987058269,0.019752507092608614,0.09868213856751624
0.443,0.002794138836635267,0.013986799440316684,0.007169410795404218,0.006897357467329352,0.019722857269732164,0.09955545667125688
0.444,0.002785152696397556,0.01348955295141284,0.007211426237591215,0.007088060019032158,0.019690650113476562,0.10042075530697574
0.445,0.002777821949240912,0.013000232900129966,0.007257300335117675,0.007285078538798401,0.019655770559482838,0.1012771827029222
0.446,0.0027720881627554816,0.012519017343223483,0.007307015016693913,0.00748841491511061,0.019618104528826976,0.10212388183326139
0.447,0.0027678928146582286,0.012046073752165841,0.007360547530619807,0.007698066912247538,0.019577539177698628,0.10295999167069061
0.448,0.0027651773510774078,0.011581558999982668,0.007417870443799546,0.007914028051019284,0.019533963149090432,0.10378464845184027
0.449,0.00276388324405005,0.011125619364082592,0.007478951646021901,0.008136287486730103,0.019487266825921525,0.10459698695186113
0.45,0.0027639520481753045,0.010678390544566466,0.007543754359655269,0.008364829884893198,0.019437342584967657,0.1053961417650275
0.451,0.0027653254563709843,0.010239997697475049,0.007612237154903059,0.008599635295305118,0.019384085050930464,0.10618124858865902
0.452,0.0027679453546875163,0.009810555482409465,0.007684353970757021,0.008840679025148557,0.01932739134995892,0.10695144550811309
0.453,0.002771753876139687,0.009390168123935809,0.0077600541417817736,0.009087931511827197,0.019267161361947976,0.10770587428094452
0.454,0.002776693453520629,0.008978929486163866,0.007839282430867685,0.00934135819625664,0.019203297970984655,0.10844368161854673
0.455,0.002782706871165092,0.008576923159876038,0.007921979068098751,0.009600919397353507,0.019135707313377406,0.10916402046373036
0.456,0.0027897373156314455,0.008184222561588678,0.008008079795889505,0.009866570188481015,0.019064299022766903,0.10986605126279754
0.457,0.0027977284252742865,0.007800891043962322,0.008097515920543533,0.010138260276615923,0.018988986471856442,0.11054894323073663
0.458,0.0028066243386811185,0.007426982017031331,0.008190214370375731,0.010415933884994568,0.018909687010319982,0.11121187560821512
0.459,0.0028163697419465376,0.007062539079777939,0.008286097760525626,0.01069952963997924,0.018826322198469424,0.11185403890911805
0.46,0.0028269099147556725,0.006707596161617805,0.008385084464574649,0.010988980462866697,0.018738818036307534,0.11247463615744273
0.461,0.002838190775245569,0.006362177673396091,0.008487088693065989,0.011284213467341101,0.018647105187648668,0.1130728841123474
0.462,0.002850158923609283,0.006026298667522017,0.008592020579008925,0.011585149863252089,0.018551119199036053,0.11364801448003195
0.463,0.002862761684404158,0.0056999650068951906,0.008699786270428703,0.011891704867371304,0.01845080071321943,0.11419927511094595
0.464,0.002875947147525461,0.005383173542293679,0.008810288029999119,0.012203787621745985,0.018346095676986095,0.11472593118064574
0.465,0.002889664207809809,0.005075912297899837,0.008923424341771147,0.012521301120226858,0.018236955543154767,0.11522726635250415
0.466,0.0029038626032370624,0.0047781606646376575,0.009039090024990416,0.012844142143702282,0.0181233374665327,0.11570258392041136
0.467,0.0029184929517018384,0.004489889600988491,0.009157176354981212,0.013172201204523393,0.0180052044936019,0.11615120792956468
0.468,0.002933506786326736,0.004211061840943946,0.009277571191064206,0.013505362500557967,0.01788252574565384,0.11657248427340618
0.469,0.0029488565892906433,0.003941632108749118,0.009400159111465538,0.0138435038792663,0.017755276595048792,0.11696578176474214
0.47,0.002964495824147676,0.003681547340085967,0.009524821555161761,0.014186496812155426,0.017623438834244765,0.11733049317909983
0.471,0.002980378966614498,0.0034307469093428616,0.00965143697058555,0.01453420637994359,0.01748700083722533,0.11766603626844545
0.472,0.0029964615338058474,0.0031891628626097793,0.009779880971092135,0.014886491268757043,0.017345957712951002,0.11797185474345112
0.473,0.0030127001119009205,0.002956720156029628,0.009910026497059783,0.015243203777680573,0.01720031145046066,0.11824741922248773
0.474,0.0030290523822277104,0.0027333368991260478,0.010041743984472636,0.015604189837981935,0.017050071055255425,0.11849222814542106
0.475,0.003045477145758967,0.0025189246027181324,0.010174901539810547,0.01596928904432068,0.01689525267660635,0.11870580865015533
0.476,0.0030619343460211237,0.002313388431022996,0.010309365121046075,0.01633833469823296,0.016735879725430416,0.11888771740974965
0.477,0.0030783850904238575,0.002116627457538226,0.010444998724521858,0.016711153864160434,0.016571982982365285,0.11903754142782295
0.478,0.003094791670021139,0.001928534924288249,0.010581664577453392,0.017087567438268596,0.016403600695637968,0.11915489878984716
0.479,0.003111117577715356,0.0017489985040119894,0.010719223335774726,0.017467390230278997,0.016230778668275967,0.11923943936781178
0.48,0.0031273275249158725,0.0015779005648642582,0.010857534287019004,0.017850431058521278,0.01605357033416789,0.1192908454756373
0.481,0.003143387456662381,0.0014151184372003616,0.010996455557903559,0.018236492858397808,0.015872036822461282,0.11930883247263856
0.482,0.0031592645652207263,0.001260524682012585,0.011135844326272617,0.018625372804444644,0.01568624700980392,0.11929314931233641
0.483,0.003174927302155223,0.0011139873605883143,0.011275557037039481,0.01901686244615892,0.01549627755999689,0.11924357903400784
0.484,0.003190345388878542,0.0009753703049623009,0.011415449621759407,0.019410747857732648,0.015302212950724444,0.11915993919450595
0.485,0.0032054898256786302,0.0008445333887399367,0.011555377721448554,0.019806809801782944,0.01510414548713088,0.11904208223801119
0.486,0.00322033289922007,0.0007213327978740642,0.011695196912242736,0.020204823907103802,0.014902175302101903,0.11888989580151128
0.487,0.0032348481885133337,0.0006056213009846163,0.011834762933464707,0.0206045608603922,0.014696410343169802,0.11870330295401518
0.488,0.0032490105693401203,0.0004972485188192212,0.011973931917642178,0.021005786611826414,0.0144869663460154,0.11848226236781036
0.489,0.0032627962171181057,0.00039606119246511135,0.012112560621989935,0.021408262594298892,0.014273966794599352,0.11822676842038934
0.49,0.003276182608184768,0.0003019034499382675,0.01225050666083829,0.02181174595603003,0.014057542868015168,0.11793685122587706
0.491,0.0032891485194784277,0.0002146170707935419,0.012387628738456155,0.022215989806211898,0.013837833374205464,0.11761257659487713
0.492,0.003301674026596661,0.00013404174841806323,0.012523786881680949,0.02262074347325037,0.013614984670725111,0.11725404592179088
0.493,0.003313740500217706,6.001534968768678e-05,0.012658842671730503,0.023025752775090724,0.013389150572781804,0.11686139599904964
0.494,0.003325330600877019,-7.625828319269491e-06,0.012792659474536037,0.02343076030102918,0.01316049224883714,0.11643479875838167
0.495,0.003336428272096424,-6.90468048458e-05,0.012925102668902918,0.023835505704339014,0.01292917810409982,0.11597446094007292
0.496,0.0033470187318671856,-0.00012441366550366628,0.01305603987178104,0.024239726004984627,0.012695383652275564,0.11548062369202564
0.497,0.0033570884624920497,-0.00017389331612299057,0.013185341159912153,0.02464315590166703,0.012459291375948622,0.11495356210117127
0.498,0.0033666251987964297,-0.00021765324067527203,0.013312879287120468,0.025045528092435553,0.012221090575958308,0.11439358466036378
0.499,0.0033756179147284263,-0.00025586126353476256,0.013438529896528297,0.025446573603100167,0.011980977210112403,0.11380103267418784
0.5,0.0033840568083835037,-0.00028868531633764277,0.013562171727007613,0.0258460221226687,0.01173915372156543,0.11317627960718048
0.501,0.003391933285510408,-0.0003162932096933615,0.013683686813210433,0.0262436023450007,0.011495828857192187,0.11251973037786298
0.502,0.00339923994157399,-0.00033885240999716637,0.013802960678547898,0.026639042315813797,0.011251217476298718,0.1118318206018015
0.503,0.003405970542462433,-0.0003565298215861414,0.013919882520518553,0.027032069784110883,0.011005540350021378,0.11111301578672231
0.504,0.0034121200039300493,-0.00036949157447144107,0.01403434538783728,0.02742241255703337,0.010759023951765789,0.11036381048254153
0.505,0.0034176843698652502,-0.00037790281786623334,0.014146246348894533,0.027809798857105304,0.010511900239033152,0.10958472738903989
0.506,0.0034226607894705567,-0.00038192751971377907,0.014255486651170421,0.02819395768083606,0.010264406426973176,0.10877631642382125
0.507,0.003427047493440215,-0.00038172827240589945,0.014361971871318543,0.028574619157714903,0.010016784753989733,0.10793915375315288
0.508,0.003430843769221194,-0.0003774661048702992,0.014465612055699364,0.028951514908750586,0.009769282239707818,0.10707384078828623
0.509,0.0034340499354429802,-0.00036930030119537217,0.01456632185117295,0.029324378403842496,0.00952215043559287,0.10618100314988994
0.51,0.0034366673155995097,-0.0003573882259518309,0.014664020625965607,0.02969294531736279,0.009275645168503864,0.10526128960332372
0.511,0.0034386982110639524,-0.0003418851563601203,0.01475863258042526,0.030056953881351062,0.009030026277464841,0.1043153709676818
0.512,0.0034401458735148233,-0.00032294412144046557,0.014850086847491926,0.030416145235679568,0.00878555734395035,0.10334393900180126
0.513,0.0034410144768490095,-0.00030071574827013553,0.014938317582732695,0.03077026377446355,0.008542505415989363,0.10234770527066055
0.514,0.0034413090886523385,-0.0002753481154622336,0.01502326404381384,0.03111905748789463,0.00830114072639836,0.10132739999570935
0.515,0.003441035641291767,-0.00024698661397207764,0.015104870659295678,0.031462278298586034,0.008061736405465229,0.10028377089266163
0.516,0.003440200902687129,-0.00021577381532876863,0.015183087086638231,0.0317996823914547,0.00782456818842402,0.09921758200020835
0.517,0.003438812446815778,-0.0001818493473789045,0.015257868259305127,0.03213103053613341,0.00758991411807931,0.09812961250302434
0.518,0.0034368786240007,-0.0001453497776169224,0.015329174422857805,0.032456088400896865,0.007358054242949807,0.0970206555523727
0.519,0.0034344085310324167,-0.00010640850416435127,0.015396971159945925,0.032774626857074954,0.0071292703113003475,0.09589151708751288
0.52,0.0034314119811780014,-6.51556544500091e-05,0.015461229404126416,0.03308642227289911,0.006903845461420288,0.09474301466097096
0.521,0.0034278994741353667,-2.1717991635140693e-05,0.015521925442486144,0.03339125679568692,0.006682063908488137,0.09357597627053515
0.522,0.0034238821659939747,2.378117117922274e-05,0.015579040907101216,0.03368891862124108,0.006464210628342676,0.09239123920060792
0.523,0.003419371839261766,7.122204893262172e-05,0.015632562755427376,0.033979202249345926,0.00625057103846371,0.09118964887529474
0.524,0.0034143808730127435,0.00012048845475309613,0.015682483239760747,0.034261908724299135,0.0060414306764518914,0.08997205772535934
0.525,0.00340892221320205,0.00017146786226629563,0.015728799865924077,0.03453684585950481,0.005837074876285184,0.08873932407094949
0.526,0.0034030093431873867,0.00022405146007658134,0.01577151534132911,0.034803828445252885,0.005637788442618987,0.08749231102180938
0.527,0.003396656254488968,0.00027813419845026157,0.015810637512563848,0.03506267843890308,0.005443855323390064,0.08623188539654002
0.528,0.0033898774178159155,0.0003336148282507778,0.015846179292677353,0.035313225136794815,0.0052555582809847195,0.08495891666233472
0.529,0.0033826877543847484,0.0003903959321933815,0.015878158578398003,0.035555305327350455,0.005073178562239644,0.08367427589648631
0.53,0.0033751026075544252,0.00044838394850103206,0.015906598157624924,0.03578876342504528,0.0048969955675561465,0.08237883477081671
0.531,0.003367137714801859,0.0005074891870545288,0.015931525607663484,0.0360134515851601,0.004727286519420318,0.08107346455999262
0.532,0.003358809180061934,0.0005676258381401395,0.015952973184807224,0.036229229799457155,0.004564326130630931,0.07975903517445636
0.533,0.0033501334464561424,0.0006287119739078224,0.015970977705970467,0.03643596597308335,0.004408386272543549,0.07843641421846052
0.534,0.003341127269432668,0.0006906695426615996,0.015985580423130627,0.03663353598311189,0.004259735643644316,0.07710646607352148
0.535,0.0033318076903375944,0.0007534243561100515,0.01599682689134846,0.03682182371923111,0.004118639438771276,0.07577005100755402
0.536,0.0033221920104328953,0.0008169060697099719,0.01600476683111272,0.03700072110721319,0.0039853590193055285,0.074428024310005
0.537,0.0033122977653737215,0.0008810481562411138,0.016009453985719273,0.037170128115920936,0.003860151584658737,0.07308123545341971
0.538,0.003302142700156308,0.0009457878727548066,0.016010945974355432,0.03732995274868859,0.003743269845386959,0.07173052728199543
0.539,0.003291744744548222,0.0010110662210431301,0.016009304141524423,0.0374801110199271,0.0036349616982651388,0.07037673522774943
0.54,0.0032811219890130686,0.0010768279017780592,0.01600459340341146,0.037620526917782574,0.003535469903664426,0.0690206865549071
0.541,0.0032702926611409837,0.001143021262472725,0.015996882091759073,0.03775113235365364,0.003445031765587861,0.06766319963299618
0.542,0.0032592751025943795,0.001209598239420878,0.01598624179578516,0.03787186709935395,0.0033638788147375815,0.06630508323895194
0.543,0.003248087746575918,0.0012765142937753548,0.015972747202647002,0.03798267871267403,0.003292236495003448,0.06494713588835664
0.544,0.0032367490958225865,0.001343728341930714,0.015956475936930295,0.0380835224520446,0.00323032385377348,0.06359014519580423
0.545,0.0032252777011262746,0.0014112026803790505,0.0159375083996205,0.038174361180956,0.003178353236468872,0.062234887264313594
0.546,0.0032136921403782643,0.001478902905211847,0.015915927606985746,0.03825516526277528,0.00313652998570266,0.06088212610366634
0.547,0.003202010998133818,0.0015467978264444792,0.015891819029763454,0.038325912446624436,0.0031050521454547985,0.059532613077471756
0.548,0.003190252845693873,0.0016148593773434399,0.015865270433000244,0.03838658774501603,0.003084110170649685,0.05818708637865726
0.549,0.003178436221703246,0.0016830625189403429,0.015836371716855546,0.038437183303976476,0.0030738866425157694,0.05684627053299443
0.55,0.0031665796132673792,0.0017513851399224454,0.015805214758650186,0.03847769826643766,0.0030745559901015386,0.055510875930240955
0.551,0.0031547014375913176,0.0018198079520969027,0.015771893256421556,0.03850813862975606,0.0030862842183195286,0.05418159838250087
0.552,0.0031428200241450776,0.0018883143816353163,0.0157365025742287,0.03852851709830913,0.00310922864289115,0.05285911870942371
0.553,0.0031309535973599594,0.001956890456316792,0.01569913958942655,0.03853885293219313,0.0031435376325685796,0.05154410234983561
0.554,0.003119120259861306,0.002025524689000891,0.015659902542096885,0.038539171793083936,0.003189350359012626,0.05023719899933772
0.555,0.00310733797624461,0.002094207957573568,0.015618890886786866,0.038529505588316804,0.0032467965547055,0.048939042273364645
0.556,0.0030956245574031284,0.0021629333816166655,0.015576205146666938,0.038509892314200767,0.0033159962792756103,0.04765024939519753
0.557,0.0030839976454157376,0.002231696196055054,0.015531946770180566,0.038480375899528185,0.0033970596946091927,0.04637142090845779
0.558,0.0030724746990024835,0.0023004936220379466,0.015486217990222763,0.03844100605018218,0.00349008684912047,0.04510314041363275
0.559,0.003061072979551354,0.0023693247353148137,0.01543912168585438,0.038391838095688066,0.0035951674715469727,0.043845974328180784
0.56,0.003049809537713244,0.0024381903323726357,0.015390761246534856,0.03833293283849515,0.003712380774630256,0.04260047166973268
0.561,0.00303870120055404,0.0025070927946092567,0.015341240438833009,0.038264356406706834,0.0038417952690370585,0.04136716386185438
0.562,0.0030277645592443965,0.0025760359508257167,0.015290663275548018,0.03818618011089398,0.003983468587873697,0.04014656456176878
0.563,0.0030170159572598964,0.002645024938326869,0.015239133887138916,0.03809848030552752,0.004137447322147002,0.03893916950936231
0.564,0.00300647147905769,0.002714066062923506,0.01518675639532673,0.038001338255462334,0.004303766867527585,0.037745456396739034
0.565,0.002996146939191819,0.0027831666581301347,0.015133634788706333,0.037894840007811556,0.00448245128277527,0.03656588475754149
0.566,0.0029860578718288993,0.002852334943850494,0.015079872800191258,0.03777907626947318,0.004673513160190045,0.035400895875241895
0.567,0.0029762195206275302,0.002921579884839214,0.01502557378611868,0.03765414229049588,0.004876953508452357,0.034250912709636434
0.568,0.002966646828946146,0.0029909110492246536,0.014970840606867247,0.03752013775337993,0.005092761648213224,0.03311633984086586
0.569,0.0029573544303430266,0.003060338467375668,0.014915775508883447,0.03737716666830125,0.005320915120789063,0.03199756343042968
0.57,0.00294835663932864,0.003129872491393688,0.014860480008059366,0.037225337274132624,0.005561379610309275,0.030894951198824957
0.571,0.002939667442326297,0.003199523655511633,0.014805054774439703,0.03706476194502741,0.005814108879656618,0.029808852419591768
0.572,0.0029313004887950764,0.0032693025376833787,0.014749599518247584,0.036895557102230664,0.006079044720532857,0.028739597929672688
0.573,0.0029232690824707447,0.0033392196226502326,0.014694212877206311,0.0367178431306932,0.006356116917978037,0.027687500156082644
0.574,0.0029155861726857728,0.0034092851667710117,0.014638992305104397,0.03653174429999135,0.006645243229670508,0.026652853158927146
0.575,0.0029082643457376076,0.003479509064898891,0.014584033961513735,0.036337388689000744,0.006946329380332644,0.025635932690807425
0.576,0.0029013158162838307,0.0035499007195836157,0.014529432602534562,0.03613490811374088,0.0072592690715596936,0.02463699627263663
0.577,0.002894752418751533,0.003620468912875613,0.014475281472414673,0.035924438057797686,0.007583944007376016,0.02365628328588024
0.578,0.0028885855987544917,0.003691221681010007,0.014421672195880482,0.03570611760473037,0.007920223935806051,0.022694015081219883
0.579,0.002882826404516329,0.003762166192251245,0.014368694671024963,0.03548008937186153,0.008267966706728493,0.021750395103611736
0.58,0.0028774854783028244,0.0038333086281794847,0.014316436962620731,0.03524649944484199,0.008627018346261551,0.0208256090336666
0.581,0.002872573047872006,0.0039046540686961486,0.01426498519576488,0.03500549731240175,0.008997213147905494,0.019919824945225137
0.582,0.002868098917954978,0.003976206381019201,0.01421442344981177,0.03475723580075562,0.009378373780647573,0.01903319347894426
0.583,0.0028640724617822588,0.004047968112930765,0.014164833652603369,0.034501871007204594,0.009770311414214977,0.018165848031651832
0.584,0.002860502612669671,0.004119940390531888,0.014116295475061961,0.034239562232522225,0.010172825861643144,0.017317904961168303
0.585,0.0028573978556757393,0.004192122820751346,0.014068886226272944,0.03397047191172133,0.01058570573930785,0.016489463806234922
0.586,0.002854766219341035,0.00426451339884668,0.014022680749257702,0.03369476554277153,0.01100872864454876,0.015680607521129906
0.587,0.002852615267519863,0.004337108421125676,0.013977751317708417,0.03341261161281658,0.011441661350988494,0.014891402724499242
0.588,0.0028509520913149893,0.004409902403105439,0.01393416753401517,0.03312418152145844,0.011884260021623736,0.01412189996188169
0.589,0.0028497833011255033,0.004482888003314858,0.01389199622895277,0.032829649500751054,0.012336270439733153,0.013372133981369407
0.59,0.0028491150188174885,0.004556055952935109,0.01385130136341103,0.03252919253166752,0.012797428257610531,0.012642124021815812
0.591,0.002848952870029799,0.004629394991461243,0.013812143932555455,0.03222299025693035,0.013267459263091554,0.011931874112981255
0.592,0.0028493019766347148,0.004702891808554795,0.013774581872804241,0.0319112248901835,0.013746079663800335,0.011241373386996604
0.593,0.0028501669493839928,0.0047765309922426944,0.013738669972002937,0.03159408112152014,0.014232996388999225,0.010570596400527156
0.594,0.0028515518807803925,0.004850294983602433,0.013704459783165292,0.0312717460193744,0.014727907408882447,0.009919503467032357
0.595,0.0028534603382194984,0.004924164038058286,0.013671999542126785,0.03094440892877122,0.015230502071110496,0.009288040998535262
0.596,0.0028558953574460335,0.004998116193398763,0.013641334089431209,0.030612261365937723,0.015740461454337922,0.008676141856336245
0.597,0.0028588594363649408,0.005072127244611584,0.013612504796745785,0.030275496909328795,0.016257458738442154,0.008083725710125828
0.598,0.002862354529242352,0.005146170725619351,0.01358554949807683,0.029934311087205165,0.016781159591114102,0.007510699404967444
0.599,0.0028663820413263024,0.005220217897985942,0.013560502426033188,0.02958890126199965,0.0173112225704202,0.006956957335628209
0.6,0.0028709428239120103,0.005294237746649639,0.013537394153355913,0.029239466511775912,0.017847299542889192,0.006422381827735037
0.601,0.0028760371698721234,0.005368196982723998,0.013516251539899512,0.028886207509094763,0.018389036116615954,0.005906843525225981
0.602,0.002881664809669203,0.00544206005339164,0.013497097685214588,0.028529326397558896,0.01893607208881164,0.005410201783552655
0.603,0.002887824907866017,0.005515789158900862,0.013479951886849646,0.028169026666236913,0.019488041907169053,0.004932305068070929
0.604,0.0028945160601486154,0.005589344276661957,0.013464829604467345,0.027805513022097706,0.020044575144357,0.004472991357037837
0.605,0.00290173629087789,0.005662683192430178,0.013451742429857578,0.027438991260528452,0.020605296984907758,0.004032088548616605
0.606,0.002909483051188005,0.005735761538552797,0.01344069806291946,0.027069668133962946,0.021169828723711617,0.0036094148712800694
0.607,0.0029177532176540215,0.005808532839245278,0.013431700293669382,0.026697751218608765,0.021737788275275248,0.0032047792969955914
0.608,0.0029265430915535965,0.0058809485628455935,0.013424748990315032,0.026323448779230506,0.02230879069283392,0.002817981956570793
0.609,0.0029358483987471694,0.005952958180978279,0.013419840093428313,0.025946969631928343,0.02288244869633511,0.002448814556538262
0.61,0.0029456642901986825,0.006024509234542637,0.013416965616264525,0.025568523004854946,0.023458373208238004,0.0020970607969590296
0.611,0.002955985343156598,0.006095547406423024,0.013416113651307756,0.025188318396837075,0.024036173896003505,0.0017624967895300534
0.612,0.0029668055630135905,0.006166016600803196,0.013417268383154143,0.024806565433893944,0.024615459720083263,0.0014448914753894143
0.613,0.0029781183858629567,0.006235859028950971,0.013420410107858282,0.024423473723652788,0.025195839486153223,0.0011440070420216987
0.614,0.0029899166817704617,0.006305015301324084,0.013425515258860416,0.02403925270764751,0.02577692240027939,0.0008595993386730038
0.615,0.003002192758781436,0.006373424525833904,0.013432556439591499,0.0236541115114589,0.026358318625652872,0.0005914182896900344
0.616,0.0030149383676833647,0.006441024412092986,0.013441502462827843,0.023268258792632408,0.026939639839486877,0.00033920830520203955
0.617,0.003028144707543598,0.00650775138146645,0.013452318396840976,0.022881902586303977,0.027520499788629436,0.00010270868856933905
0.618,0.0030418024320409387,0.006573540682743355,0.013464965618364789,0.02249525014847865,0.02810051484241912,-0.00011834595997085822
0.619,0.0030559016566089545,0.006638326513237844,0.013479401872384623,0.02210850779694065,0.028679304541305486,-0.00032422534402154485
0.62,0.0030704319664070254,0.006702042145117795,0.013495581338740395,0.02172188074982868,0.029256492139761992,-0.0005152030766552264
0.621,0.003085382425131843,0.006764620056742046,0.013513454705523958,0.02133557296197939,0.02983170514201578,-0.0006915562914920392
0.622,0.003100741584678602,0.006825992068768872,0.013532969249238158,0.020949786959206244,0.030404575829100475,-0.0008535652597489814
0.623,0.0031164974956591593,0.006886089484779687,0.013554068921675754,0.020564723670723876,0.030974741775724225,-0.001001513013767744
0.624,0.0031326377187836513,0.0069448432361425404,0.013576694443473761,0.020180582259953516,0.0315418463554575,-0.0011356849775132048
0.625,0.003149149337110094,0.007002184030819161,0.013600783404298301,0.019797559953981102,0.032105539232785966,-0.0012563686045166643
0.626,0.0031660189691614946,0.007058042505797106,0.013626270369611016,0.01941585187201052,0.03266547684062486,-0.0013638530237161618
0.627,0.0031832327829031766,0.007112349382805345,0.013653086993959071,0.019035650853252473,0.033221322841940334,-0.0014584286936221375
0.628,0.0032007765105671942,0.00716503562694733,0.013681162140715606,0.01865714728477853,0.03377274857418725,-0.0015403870652124004
0.629,0.0032186354643078193,0.007216032607861205,0.013710422008174183,0.018280528929917054,0.03431943347538436,-0.0016100202539360057
0.63,0.003236794552671447,0.007265272262993784,0.01374079026187225,0.01790598075777106,0.034861065490799974,-0.001667620721180031
0.631,0.0032552382978635486,0.0073126872625551296,0.013772188172993687,0.01753368477441939,0.0353973414593652,-0.001713480965525237
0.632,0.003273950853792676,0.007358211175704703,0.013804534762685658,0.017163819856339597,0.035927967479042186,-0.0017478932240856649
0.633,0.0032929160248670775,0.007401778637506976,0.013837746952118844,0.016796561586564656,0.0364526592504876,-0.0017711491841945033
0.634,0.0033121172855143026,0.007443325516181398,0.013871739718117528,0.01643208209405401,0.03697114239850683,-0.0017835397056673015
0.635,0.0033315378003882985,0.007482789080155541,0.013906426254183061,0.01607054989672741,0.03748315277098167,-0.0017853545538467387
0.636,0.0033511604452214493,0.007520108164409922,0.013941718136726648,0.015712129748585286,0.037988436715126715,-0.0017768821436104898
0.637,0.0033709678282715784,0.007555223335579984,0.013977525496310516,0.015356982491321529,0.038486751331059374,-0.0017584092945027636
0.638,0.003390942312308398,0.00758807705525755,0.01401375719366774,0.015005264910819657,0.03897786470276504,-0.0017302209971290679
0.639,0.0034110660370816255,0.007618613840911746,0.014050321000233866,0.014657129598908082,0.039461556106628104,-0.0016926001909326675
0.64,0.003431320942213207,0.007646780423826823,0.014087123782886943,0.014312724820733796,0.03993761619778727,-0.0016458275534504405
0.641,0.0034516887904572947,0.007672525903430774,0.014124071692565065,0.013972194388093401,0.0404058471746318,-0.001590181301125446
0.642,0.003472151191273469,0.007695801897365857,0.014161070356415058,0.013635677539035199,0.04086606292175956,-0.0015259370017329328
0.643,0.003492689624661242,0.007716562686633413,0.014198025073115404,0.013303308824016357,0.04131808913167406,-0.001453367398454861
0.644,0.0035132854652063948,0.00773476535513446,0.014234841010999569,0.012975217998866601,0.04176176340543239,-0.0013727422456151846
0.645,0.0035339200062917994,0.007750369922927816,0.014271423408575505,0.012651529924776354,0.042196935332393784,-0.0012843281560659552
0.646,0.003554574484427963,0.0077633394725423336,0.014307677776995638,0.012332364475496915,0.0426234665491818,-0.0011883884601951104
0.647,0.0035752301036622355,0.007773640267710408,0.014343510103986936,0.012017836451915039,0.04304123077798403,-0.0010851830765111223
0.648,0.003595868060028566,0.007781241863930822,0.014378827058710877,0.011708055504140355,0.0434501138443824,-0.0009749683937452976
0.649,0.003616469565999291,0.0077861172103104,0.014413536196995206,0.011403126061216537,0.04385001367500932,-0.000857997164395587
0.65,0.0036370158748969864,0.0077882427421704075,0.0144475461663688,0.011103147268536772,0.04424084027541258,-0.0007345184096126842
0.651,0.0036574883052212536,0.007787598463938876,0.014480766910336841,0.010808212933017808,0.044622515688564936,-0.000604777335299047
0.652,0.0036778682648450182,0.007784168021889321,0.014513109871346517,0.010518411476070076,0.04499497393449673,-0.00046901525925733525
0.653,0.003698137275037939,0.007777938766329685,0.014544488191899296,0.010233825894392227,0.045358160931599306,-0.00032746954919108876
0.654,0.003718276994279133,0.007768901802893799,0.014574816913258688,0.009954533728609678,0.04571203440024858,-0.0001803735713292562
0.655,0.0037382692418254137,0.007757052032654906,0.014604013171189279,0.009680607039761674,0.04605656374950146,-2.7956649417405527e-05
0.656,0.0037580960210040213,0.007742388180884473,0.014631996388154461,0.009412112393619176,0.046391729947683806,0.00012955596620738865
0.657,0.003777739542202585,0.0077249128144204655,0.014658688461397354,0.009149110852789601,0.046717525377692797,0.0002919431197624528
0.658,0.003797182245536227,0.007704632347762994,0.01468401394632583,0.008891657976537027,0.047033953677780765,0.00045898776170686935
0.659,0.003816406823182259,0.007681557038146474,0.014707900234616706,0.008639803828218542,0.04734102956849314,0.0006304769513021537
0.66,0.0038353962413841575,0.007655700969921535,0.014730277726453883,0.008393592990209517,0.04763877866632463,0.000806201850385854
0.661,0.0038541337621357543,0.0076270820286157255,0.014751079996328197,0.008153064586164724,0.04792723728455569,0.0009859577087041082
0.662,0.0038726029645628902,0.007595721865046073,0.014770243951851707,0.007918252310441066,0.04820645222164484,0.0011695438411567667
0.663,0.0038907877660227254,0.007561645849847511,0.014787709985067104,0.007689184464492278,0.048476480537484434,0.001356763597319136
0.664,0.003908672442939867,0.007524883018769607,0.014803422115759218,0.007465884000035568,0.04873738931778902,0.0015474243236178662
0.665,0.003926241651393942,0.007485466009086209,0.014817328126307856,0.007248368568783331,0.048989255426891316,0.001741337318553481
0.666,0.003943480447467233,0.007443430987465594,0.01482937968766659,0.007036650578527765,0.049232165249278134,0.0019383177813760038
0.667,0.003960374307355243,0.007398817569667942,0.01483953247610253,0.00683073725535956,0.04946621442028122,0.0021381847546307346
0.668,0.003976909147237322,0.0073516687324713635,0.014847746280368451,0.006630630711792566,0.049691507546394786,0.002340761060997691
0.669,0.00399307134289781,0.0073020307182703,0.014853985098995104,0.006436328020556605,0.04990815791569072,0.0025458732348516418
0.67,0.004008847749080456,0.007249952932831801,0.01485821722740445,0.006247821293814988,0.05011628719875128,0.0027533514489713642
0.671,0.004024225718551037,0.007195487836728068,0.01486041533457731,0.006065097767565286,0.050316025140463023,0.0029630294368272465
0.672,0.004039193120836779,0.00713869083098353,0.014860556529066902,0.005888139890991077,0.05050750924293332,0.0031747444108757494
0.673,0.004053738360608424,0.00707962013748106,0.014858622414214411,0.005716925420545828,0.050690884439718274,0.00338833697728807
0.674,0.0040678503956724935,0.007018336674667067,0.014854599132471582,0.005551427518564014,0.05086630276150656,0.0036036510475396916
0.675,0.004081518754545677,0.006954903929082162,0.014848477398768024,0.00539161485620522,0.051033922993392086,0.0038205337472880354
0.676,0.004094733553587117,0.006889387823226805,0.01484025252289824,0.005237451720541357,0.05119391032387291,0.004038835322966235
0.677,0.004107485513666668,0.006821856580251992,0.014829924420961878,0.005088898125595314,0.05134643598572929,0.004258409046520745
0.678,0.004119765976348057,0.006752380585945129,0.014817497615962768,0.004945909927135485,0.0514916768889896,0.00447911111871941
0.679,0.004131566919564743,0.006681032248460518,0.014802981227732012,0.004808438941028654,0.051629815246325025,0.004700800571457224
0.68,0.004142880972762314,0.006607885856222657,0.014786388952367037,0.004676433064953485,0.0517610381914113,0.0049233391694911395
0.681,0.004153701431474794,0.006533017434409704,0.014767739031372056,0.004549836403274422,0.05188553739098182,0.005146591312041787
0.682,0.004164022271294841,0.0064565046004050365,0.014747054210660568,0.004428589394868241,0.052003508651407696,0.005370423934705741
0.683,0.004173838161192009,0.006378426418589017,0.014724361689552937,0.004312628943683581,0.05211515152067864,0.005594706412124977
0.684,0.004183144476131853,0.0062988632548327044,0.01469969305988528,0.004201888551801153,0.05222066888667404,0.005819310461860632
0.685,0.004191937308952696,0.006217896631049956,0.014673084235350504,0.004096298454752294,0.052320266572632654,0.006044110049916499
0.686,0.004200213481463843,0.006135609080159427,0.014644575371217957,0.003995785758848276,0.0524141529307421,0.006268981298352611
0.687,0.004207970554734879,0.006052084001798629,0.014614210774611235,0.003900274580272317,0.05250253843474909,0.006493802395418718
0.688,0.004215206838549291,0.005967405519117547,0.014582038805552493,0.003809686185688873,0.05258563527242849,0.006718453508621969
0.689,0.0042219213999981214,0.0058816583369619745,0.01454811176900956,0.0037239391341277756,0.05266365693866167,0.006942816701124917
0.69,0.0042281140711914,0.005794927601739678,0.014512485798217126,0.00364294941990157,0.05273681782979349,0.007166775851850784
0.691,0.004233785456066235,0.005707298763247153,0.014475220729579703,0.003566630616311875,0.0528053328398757,0.007390216579652895
0.692,0.004238936936269739,0.005618857438720692,0.014436379969484768,0.0034948940198954313,0.05286941695935785,0.007613026171883833
0.693,0.00424357067609159,0.005529689279361268,0.014396030353350775,0.003427648794954457,0.05292928487674443,0.007835093517677864
0.694,0.004247689626414879,0.005439879839567216,0.014354241997216109,0.003364802118111072,0.05298515058370467,0.00805630904623875
0.695,0.004251297527646122,0.005349514449092315,0.014311088142162748,0.003306259322623236,0.053037226984113,0.008276564670404498
0.696,0.004254398911578236,0.005258678088330599,0.014266644991880113,0.003251924042200156,0.0530857255075326,0.008495753735739008
0.697,0.0042569991021363255,0.005167455266913358,0.014220991543713682,0.00320169835405738,0.05313085572775193,0.008713770975376544
0.698,0.004259104214956658,0.005075929905787888,0.014174209413592225,0.003155482920955351,0.05317282498712443,0.008930512470818185
0.699,0.004260721155754131,0.004984185222931729,0.014126382655262403,0.003113177131970934,0.0532118380275756,0.009145875618851072
0.7,0.004261857617441285,0.004892303622840263,0.014077597574266099,0.0030746792417601287,0.05324809662917177,0.00935975910473244
0.701,0.004262522075969226,0.004800366589909228,0.014027942537080774,0.003039886508080978,0.05328179925709811,0.009572062881752547
0.702,0.004262723784864769,0.004708454585816791,0.013977507775825744,0.003008695327356254,0.053313140717811056,0.009782688157265754
0.703,0.004262472768437289,0.004616646950992909,0.013926385188935811,0.0029810013680630827,0.053342311825039235,0.009991537385256814
0.704,0.004261779813623783,0.0045250218102473976,0.013874668138226607,0.0029566997017406557,0.0533694990762114,0.010198514265488305
0.705,0.004260656460433224,0.004433655982612309,0.013822451242818437,0.0029356849314103564,0.053394884339783885,0.010403523749253669
0.706,0.0042591149909437,0.004342624895438655,0.013769830170429369,0.002917851317210428,0.05341864455381845,0.010606472051737937
0.707,0.004257168416799819,0.004252002502773293,0.013716901426574614,0.00290309289906393,0.0534409514360346,0.010807266670963805
0.708,0.004254830465154707,0.004161861208031462,0.013663762142213109,0.0028913036162232617,0.05346197120545742,0.011005816413272196
0.709,0.004252115563000803,0.004072271790976048,0.013610509860379158,0.0028823774235618065,0.05348186431572979,0.01120203142525332
0.71,0.004249038819836736,0.003983303339015024,0.013557242322344345,0.0028762084045084635,0.053500785200161036,0.011395823232007423
0.711,0.004245616008623965,0.003895023182829964,0.013504057253873939,0.0028726908805422487,0.05351888202861955,0.011587104781575519
0.712,0.0042418635449978466,0.003807496836347401,0.013451052152159682,0.0028717195171819613,0.05353629647639871,0.011775790495340752
0.713,0.004237798464713432,0.0037207879410600135,0.01339832407401488,0.0028731894264190628,0.053553163505158125,0.011961796324162785
0.714,0.0042334383993250955,0.003634958214697185,0.01334596942590498,0.0028769962655481557,0.05356961115595783,0.012145039809972231
0.715,0.004228801550120133,0.003550067404235464,0.013294083756360275,0.002883036332348368,0.05358576035428452,0.012325440152520115
0.716,0.00422390666035148,0.003466173243229855,0.01324276155128243,0.002891206656563737,0.053601724726841826,0.012502918280946702
0.717,0.004218772985842653,0.0033833314134379252,0.013192096032618105,0.0029014050876258043,0.053617610429766774,0.012677396929804068
0.718,0.004213420264062079,0.003301595510701578,0.013142178960834559,0.0029135303785602818,0.05363351598786353,0.012848800719139124
0.719,0.0042078686817773716,0.0032210170150465205,0.013093100441596537,0.0029274822660235065,0.05364953214443111,0.013017056238221534
0.72,0.004202138841403058,0.003141645264955938,0.013044948737013945,0.002943161546425155,0.053665741721317425,0.013182092132485123
0.721,0.0041962517261520775,0.0030635274357708056,0.012997810081807705,0.0029604701481128204,0.05368221948898058,0.013343839193240385
0.722,0.004190228664095972,0.0029867085221629386,0.012951768504725835,0.002979311199620936,0.05369903204657697,0.013502230449706916
0.723,0.004184091291232823,0.0029112313246181677,0.012906905655529136,0.002999589094016898,0.05371623771234774,0.013657201262904185
0.724,0.004177861513656736,0.0028371364398569326,0.012863300637853499,0.0030212095494041805,0.053733886424732334,0.01380868942092201
0.725,0.0041715614689195385,0.0027644622551094102,0.01282102984824438,0.003044079665659998,0.05375201965464835,0.013956635235065533
0.726,0.0041652134866754925,0.0026932449461525136,0.01278016682164728,0.0030681079774928927,0.053770670329282746,0.014100981636335734
0.727,0.0041588400487019015,0.0026235184790068806,0.01274078208362099,0.0030932045039067705,0.05378986276761941,0.01424167427167253
0.728,0.0041524637483892814,0.0025553146151836696,0.012702943009514188,0.0031192807941555667,0.05380961262784332,0.014378661599360054
0.729,0.004146107249792485,0.0024886629203647805,0.01266671369081307,0.0031462499702689137,0.053829926866739826,0.014511894982974533
0.73,0.004139793246329938,0.0024235907763971018,0.012632154808835698,0.0031740267662259437,0.05385080371125641,0.014641328783239604
0.731,0.004133544419214854,0.0023601233964812853,0.012599323515924866,0.003202527563854158,0.05387223264250901,0.014766920447136447
0.732,0.0041273833957024475,0.002298283843436521,0.012568273324276449,0.003231670425534293,0.05389419439267237,0.01488863059359519
0.733,0.00412133270724201,0.0022380930509224455,0.012539054002530185,0.0032613751237997174,0.053916660955347626,0.015006423095074188
0.734,0.00411541474763083,0.002179569847496495,0.012511711480242145,0.003291563167928726,0.05393959561010598,0.015120265154328426
0.735,0.004109651731275518,0.002122730983380251,0.012486287760357049,0.0033221578276391665,0.05396295296195148,0.015230127375699842
0.736,0.004104065651672854,0.002067591159803248,0.012462820839805485,0.003353084154006073,0.05398667899644414,0.015335983830350852
0.737,0.004098678240225595,0.0020141630607884457,0.01244134463835669,0.0033842689977323036,0.05401071115118833,0.015437812115006761
0.738,0.004093510925507595,0.001962457387240139,0.012421888935848857,0.0034156410249073805,0.054034978404314926,0.015535593403952113
0.739,0.0040885847930870085,0.001912482893192026,0.0124044793178935,0.003447130730389906,0.05405940138047465,0.015629312494216292
0.74,0.0040839205460079485,0.001864246424070249,0.012389137130115295,0.0034786704489449213,0.054083892474730534,0.015718957844061465
0.741,0.004079538466021635,0.001817752956823709,0.012375879440951367,0.0035101943642611433,0.0541083559946014,0.015804521605027225
0.742,0.004075458375648618,0.0017730056417727342,0.012364719012999193,0.0035416385159651826,0.05413268832036912,0.015885999647881177
0.743,0.004071699601145148,0.001730005846028418,0.012355664282872844,0.003572940804741008,0.05415677808362539,0.01596339158288588
0.744,0.0040682809364413495,0.0016887531983386832,0.012348719349503278,0.0036040409956535685,0.0541805063639123,0.016036700774834604
0.745,0.004065220608117224,0.0016492456352217738,0.012343883970799817,0.0036348807197667775,0.05420374690321356,0.01610593435333036
0.746,0.00406253624148264,0.0016114794482513864,0.012341153568577888,0.0036654034741396336,0.05422636633796986,0.01617110321877474
0.747,0.004060244827827249,0.0015754493323596333,0.012340519241655475,0.003695554620280805,0.054248224448204395,0.01623222204449656
0.748,0.004058362692906427,0.001541148435026141,0.012341967787024755,0.0037252813811402804,0.054269174423249265,0.016289309275397002
0.749,0.004056905466730751,0.0015085684062254793,0.012345481729007884,0.003754532836714362,0.05428906314347612,0.016342387123430134
0.75,0.004055888054727806,0.00147769944901081,0.012351039356298726,0.003783259918335592,0.05430773147736215,0.016391481560180752
0.751,0.004055324610344109,0.0014485303706181713,0.012358614766773662,0.003811415401712178,0.054325014593158895,0.01643662230674608
0.752,0.004055228509152049,0.001421048633982298,0.012368177919928076,0.003838953898773418,0.054340742284374716,0.016477842821073594
0.753,0.004055612324524093,0.0013952404095603345,0.01237969469676684,0.0038658318483711547,0.05435473930825116,0.016515180282855063
0.754,0.004056487804934347,0.0013710906273635636,0.012393126966954045,0.003892007505885374,0.054366825736415506,0.016548675576028543
0.755,0.0040578658529439576,0.00134858302909938,0.012408432663012682,0.003917440931785979,0.05437681731689555,0.016578373268895354
0.756,0.004059756505920145,0.00132770022032646,0.012425565861358788,0.0039420939792103125,0.05438452584666127,0.016604321591815022
0.757,0.004062168918528969,0.0013084237225257779,0.012444476869952818,0.00396593028062219,0.0543897595538362,0.01662657241239362
0.758,0.004065111347030332,0.0012907340249896215,0.012465112322348896,0.003988915233619716,0.0543923234887397,0.016645181208031646
0.759,0.00406859113539127,0.0012746106364312862,0.01248741527791541,0.004011015985956799,0.05439201992297291,0.01666020703565643
0.76,0.004072614703220766,0.0012600321362209726,0.012511325327986017,0.0040322014198400915,0.05438864875579762,0.016671712498444086
0.761,0.004077187535516399,0.0012469762251597865,0.012536778707681962,0.004052442135561186,0.054382007927041155,0.016679763709344448
0.762,0.004082314174200586,0.0012354197757136962,0.01256370841313301,0.004071710434523664,0.05437189383569854,0.01668443025125087
0.763,0.004087998211413005,0.0012253388816409283,0.012592044323822393,0.004089980301724759,0.05435810176332054,0.016685785133691924
0.764,0.004094242284517591,0.0012167089069573145,0.012621713329790283,0.004107227387751034,0.054340426301191874,0.016683904745954124
0.765,0.004101048072778626,0.0012095045341933843,0.012652639463442833,0.004123428990346118,0.054318661780215036,0.016678868806570286
0.766,0.004108416295659663,0.0012036998119039765,0.0126847440357225,0.004138564035607042,0.05429260270232438,0.016670760309118807
0.767,0.004116346712697752,0.0011992682013951823,0.012717945776398168,0.0041526130588635905,0.05426204417218072,0.01665966546426974
0.768,0.004124838124901151,0.0011961826226346722,0.012752160978231002,0.004165558185290901,0.054226782327847826,0.016645673637991645
0.769,0.004133888377613306,0.0011944154993112945,0.012787303644765014,0.0041773831102987265,0.05418661476911468,0.016628877285815
0.77,0.004143494364785593,0.0011939388030101517,0.012823285641481772,0.004188073079733572,0.05414134098209301,0.016609371883043383
0.771,0.004153652034609735,0.0011947240964711033,0.01286001685005062,0.004197614869925973,0.05409076275872063,0.01658725585081195
0.772,0.004164356396475404,0.0011967425759014001,0.012897405325406461,0.004205996767616029,0.054034684609880035,0.01656263047790598
0.773,0.004175601529231286,0.0011999651123159795,0.012935357455401293,0.004213208549794038,0.05397291417099593,0.01653559983825966
0.774,0.004187380590733164,0.0012043622918812193,0.012973778122799012,0.004219241463496091,0.053905262599150024,0.016506270704048306
0.775,0.004199685828661656,0.0012099044552395205,0.013012570869404994,0.004224088205594848,0.05383154496089135,0.016474752454263313
0.776,0.004212508592590521,0.0012165617357931054,0.01305163806213476,0.004227742902623791,0.053751580610015996,0.016441156978624413
0.777,0.004225839347288431,0.0012243040969263882,0.013090881060829132,0.004230201090669738,0.05366519355468291,0.016405598576646755
0.778,0.0042396676872426195,0.001233101368147541,0.013130200387619069,0.004231459695363094,0.05357221281336652,0.016368193851651797
0.779,0.00425398235239807,0.0012429232801313974,0.013169495897633133,0.004231517011988222,0.05347247275932313,0.016329061599496777
0.78,0.004268771245107189,0.0012537394986473261,0.01320866695082438,0.004230372685728945,0.053365813453417676,0.01628832269179916
0.781,0.004284021448282625,0.0012655196573565489,0.013247612584672103,0.004228027692058174,0.05325208096526831,0.01624609995345121
0.782,0.004299719244743306,0.0012782333894628707,0.013286231687490048,0.004224484317276564,0.05313112768270565,0.01620251803426113
0.783,0.004315850137742882,0.0012918503581989581,0.013324423172049347,0.004219746139203211,0.05300281260952622,0.016157703274623045
0.784,0.004332398872668606,0.0013063402861280711,0.013362086149202757,0.0042138180080208395,0.052867001651466336,0.016111783565201383
0.785,0.004349349459893955,0.0013216729832395198,0.013399120101177392,0.004206706027276656,0.0527235678902508,0.016064888200705348
0.786,0.004366685198759371,0.0013378183738155408,0.013435425054188339,0.004198417535035623,0.052572391845500985,0.016017147727922433
0.787,0.004384388702644323,0.0013547465220480777,0.013470901750020711,0.004188961085174488,0.052413361724239015,0.015968693788270746
0.788,0.004402441925082728,0.0013724276563867417,0.01350545181623986,0.00417834642879492,0.05224637365770353,0.015919658955204977
0.789,0.004420826186864206,0.0013908321926043132,0.013538977934723627,0.004166584495727036,0.052071331925192546,0.015870176566865835
0.79,0.00443952220405728,0.0014099307555727999,0.013571384008260861,0.004153687376094523,0.0518881491646591,0.015820380554405634
0.791,0.00445851011688911,0.0014296941997501214,0.013602575325007898,0.004139668301920867,0.05169674656979275,0.01577040526645839
0.792,0.004477769519419199,0.0014500936283843968,0.01363245872062158,0.004124541628769908,0.051497054073314785,0.015720385290245942
0.793,0.004497279489949482,0.0014711004114492028,0.013660942737892966,0.0041083228174273075,0.05128901051619965,0.015670455269816294
0.794,0.00451701862211745,0.0014926862023285862,0.013687937783702489,0.004091028415637391,0.051072563802532535,0.015620749721896223
0.795,0.004536965056622181,0.0015148229532752032,0.013713356283113909,0.00407267603991224,0.05084767103975246,0.015571402849811879
0.796,0.004557096513536085,0.0015374829296695618,0.01373711283041721,0.00405328435743,0.050614298664109936,0.015522548355900539
0.797,0.0045773903251578475,0.0015606387231136254,0.013759124336912532,0.0040328730680400365,0.05037242255123563,0.015474319252819954
0.798,0.004597823469362604,0.0015842632633973786,0.013779310175197398,0.004011462886393866,0.05012202811171042,0.015426847674171988
0.799,0.004618372603402322,0.0016083298293808417,0.013797592319683903,0.003989075524222229,0.049863110371440304,0.015380264684897164
0.8,0.004639014098103354,0.0016328120588356067,0.013813895483036742,0.003965733672780561,0.0495956740365276,0.015334700091959112
0.801,0.004659724072401094,0.0016576839572897573,0.013828147248190054,0.003941460985487644,0.04931973354227303,0.015290282255909319
0.802,0.004680478428144913,0.0016829199059191183,0.013840278195572927,0.003916282060784669,0.04903531308598761,0.015247137903985368
0.803,0.004701252885101099,0.0017084946685268602,0.013850222025153429,0.0038902224252433445,0.048742446643415496,0.015205391945433355
0.804,0.004722023016077199,0.0017343833976525946,0.013857915672903282,0.0038633085169521584,0.048441177968706825,0.015165167289754054
0.805,0.004742764282088351,0.001760561639850943,0.01386329942128758,0.0038355676692099715,0.04813156057799318,0.015126584668561921
0.806,0.00476345206748711,0.001787005340178192,0.013866317003387913,0.0038070280945558203,0.0478136577167042,0.015089762461724995
0.807,0.004784061714984665,0.001813690845924671,0.013866915700265933,0.003777718869163291,0.047487542310823194,0.015054816528424097
0.808,0.00480456856050087,0.0018405949096307848,0.013865046431170923,0.003747669917626831,0.04715329690231298,0.015021860043732406
0.809,0.004824947967787743,0.001867694691426379,0.013860663836199504,0.003716911998164898,0.046811013568968475,0.014991003341275485
0.81,0.004845175362773647,0.0018949677607353224,0.013853726351034226,0.0036854766882598957,0.0464607938289858,0.014962353762490539
0.811,0.004865226267576788,0.0019223920973889547,0.013844196273413894,0.003653396370747814,0.0461027485305705,0.014936015512960827
0.812,0.004885076334142723,0.0019499460921935433,0.01383203982101328,0.0036207042203632287,0.04573699772692632,0.01491208952625384
0.813,0.004904701377472782,0.0019776085469984657,0.013817227180437488,0.0035874341907407396,0.04536367053698728,0.01489067333563998
0.814,0.004924077408423192,0.0020053586743128964,0.013799732547081549,0.003553621001873704,0.04498290499230858,0.014871860954014217
0.815,0.004943180666060571,0.0020331760965185144,0.013779534155673848,0.003519300128033963,0.04459484787060051,0.014855742762289533
0.816,0.004961987649555732,0.002061040844724186,0.01375661430139702,0.0034845077861582465,0.044199654516426656,0.014842405406479556
0.817,0.004980475149587944,0.002088933357306736,0.01373095935154625,0.0034492809247058938,0.0437974886495651,0.014831931703640513
0.818,0.0049986202792215335,0.0021168344781806966,0.013702559747748158,0.0034136572129895974,0.04338852216146387,0.014824400556803044
0.819,0.005016400504210498,0.0021447254548391955,0.0136714099988416,0.003377675030977734,0.04297293490014091,0.0148198868789975
0.82,0.005033793672688037,0.002172587936206818,0.013637508664616486,0.00334137345956326,0.04255091444381717,0.014818461526461203
0.821,0.005050778044206981,0.002200403970342335,0.013600858330695853,0.003304792271290133,0.04212265586355531,0.014820191241104274
0.822,0.005067332318111059,0.0022281560020247465,0.013561465574905706,0.0032679719215249026,0.04168836147520584,0.014825138602293347
0.823,0.0050834356612306005,0.002255826870251302,0.01351934092549954,0.0032309535400593522,0.04124824058101551,0.014833361987987735
0.824,0.005099067734904898,0.002283399805672691,0.013474498811602674,0.0031937789231287735,0.04080250920130732,0.014844915545232686
0.825,0.005114208721335447,0.0023108584279893023,0.01342695750623714,0.0031564905258288536,0.04035138979668692,0.014859849169981754
0.826,0.005128839349270464,0.00233818674333262,0.013376739062297563,0.0031191314549121863,0.03989511098125356,0.014878208496186388
0.827,0.005142940919013982,0.0023653691416554382,0.013323869241875978,0.003081745461942673,0.03943390722728346,0.014900034894057073
0.828,0.005156495326744718,0.0023923903941522337,0.013268377439369677,0.0030443769367816793,0.03896801856181674,0.014925365477369269
0.829,0.005169485088121695,0.0024192356507275396,0.013210296598837039,0.0030070709013733706,0.03849769025553803,0.014954233119661363
0.83,0.005181893361144945,0.0024458904375274024,0.013149663126081993,0.0029698730037889154,0.03802317250430775,0.014986666479149827
0.831,0.005193703968229758,0.002472340654548128,0.013086516795945757,0.002932829512481255,0.03754472010366675,0.015022690032165774
0.832,0.005204901417443805,0.0024985725733369228,0.01302090065527119,0.002895987310694904,0.037062592116592984,0.01506232411489468
0.833,0.005215470922851501,0.0025245728347992966,0.012952860921990716,0.0028593938909694493,0.03657705153474867,0.015105584973175655
0.834,0.005225398423912759,0.002550328447127047,0.012882446880780532,0.002823097349671078,0.036088364933433856,0.015152484820090961
0.835,0.00523467060389406,0.0025758267838580148,0.012809710775720573,0.002787146381482835,0.03559680212044767,0.015203031901056582
0.836,0.005243274907264852,0.0026010555820752987,0.012734707700394133,0.0027515902737811,0.03510263577904353,0.015257230566114124
0.837,0.005251199556065278,0.0026260029407502773,0.012657495485846345,0.0027164789008238374,0.03460614110516962,0.01531508134912064
0.838,0.005258433565237208,0.0026506573192312853,0.012578134586793974,0.002681862717676184,0.03410759543924063,0.015376581053533183
0.839,0.0052649667569094,0.0026750075358781687,0.01249668796644201,0.0026477927537998072,0.033607277892784525,0.015441722844490734
0.84,0.0052707897736232676,0.0026990427668416293,0.01241322098022007,0.0026143206062319434,0.03310546897042356,0.015510496346906287
0.841,0.005275894090483371,0.0027227525449844887,0.012327801258708559,0.002581498432277522,0.03260245018778257,0.015582887749291091
0.842,0.005280272026219163,0.0027461267589393074,0.012240498589984581,0.002549378941635516,0.03209850368609322,0.01565887991304133
0.843,0.005283916753149846,0.002769155652293509,0.012151384801580846,0.002518015387881724,0.0315939118444689,0.015738452486937633
0.844,0.0052868223060475545,0.0027918298228900643,0.012060533642216025,0.0024874615592363255,0.03108895689100591,0.01582158202666031
0.845,0.005288983589891597,0.00281414022222949,0.011968020663419692,0.0024577717685542047,0.03058392051397284,0.015908242119216785
0.846,0.005290396386498782,0.0028360781549570746,0.011873923101138686,0.0024290008424850754,0.030079083474384354,0.015998403512288064
0.847,0.00529105736000526,0.0028576352784172687,0.01177831975737622,0.0024012041097547392,0.029574725221243246,0.016092034248584134
0.848,0.005290964061167269,0.0028788036022548195,0.011681290881886474,0.0023744373885177293,0.029071123510696108,0.016189099805327144
0.849,0.005290114930444463,0.0028995754880404203,0.011582918053930202,0.0023487569727274923,0.02856855403029019,0.016289563238964917
0.85,0.005288509299833337,0.00291994364889937,0.011483284064089572,0.002324219617466209,0.028067290029449982,0.01639338533518001
0.851,0.005286147393429904,0.002939901149125993,0.011382472796139057,0.002300882523174491,0.02756760195721917,0.016500524764216692
0.852,0.005283030326714678,0.002959441403773288,0.011280569108976077,0.0022788033187223257,0.027069757108239497,0.016610938241503035
0.853,0.005279160104560861,0.0029785581782139285,0.011177658718638647,0.00225804004326615,0.026574019277858955,0.01672458069349731
0.854,0.0052745396179644044,0.002997245587673807,0.01107382808047823,0.0022386511268411026,0.026080648427175265,0.016841405428638507
0.855,0.00526917263948508,0.0030154980967417784,0.010969164271600744,0.0022206953696406345,0.025589900358731148,0.01696136431323169
0.856,0.005263063817378579,0.003033310518858114,0.010863754873719569,0.0022042319199371825,0.02510202640349316,0.01708440795205237
0.857,0.005256218668401002,0.0030506780157792688,0.010757687856578376,0.002189320250598183,0.02461727311967107,0.01721048587341042
0.858,0.005248643569284723,0.0030675960970099445,0.010651051462111432,0.002176020134151729,0.02413588200386885,0.017339546718373716
0.859,0.005240345746913437,0.0030840606191882797,0.010543934089527378,0.002164391616355217,0.023658089214996177,0.017471538433815492
0.86,0.005231333267249709,0.0031000677854081202,0.01043642418152627,0.002154494988217973,0.023184125311303993,0.017606408468916143
0.861,0.005221615023079054,0.0031156141444634703,0.010328610111877915,0.002146390756425809,0.022714215000836167,0.01774410397471489
0.862,0.00521120072063119,0.003130696590002817,0.01022058007459514,0.0021401396121136945,0.022248576905512147,0.017884572006263744
0.863,0.005200100865130958,0.0031453123595836653,0.010112421974931672,0.0021358023979339336,0.021787423338977385,0.018027759726882354
0.864,0.0051883267453266164,0.0031594590336194925,0.010004223322428752,0.002133440073371031,0.021330960098284692,0.018173614613950208
0.865,0.0051758904170428385,0.003173134534212387,0.009896071126231563,0.0021331136782580633,0.02087938626940549,0.018322084665605722
0.866,0.005162804685805239,0.0031863371238660576,0.009788051792892933,0.002134884294449916,0.020432894046518883,0.01847311860765282
0.867,0.0051490830885779215,0.0031990654040766576,0.009680251026872989,0.0021388130056058776,0.01999166856499262,0.018626666099905598
0.868,0.005134739874645453,0.003211318313801786,0.009572753733928466,0.0021449608550309232,0.01955588774795329,0.01878267794113227
0.869,0.005119789985659676,0.0032230951278084427,0.009465643927565872,0.002153388801525844,0.01912572216633525,0.01894110627169189
0.87,0.005104249034863889,0.003234395454897375,0.009359004638709317,0.002164157673203518,0.018701334912293723,0.01910190477289259
0.871,0.005088133285503787,0.003245219235994891,0.009252917828706977,0.0021773281192406574,0.01828288148587442,0.019265028862040758
0.872,0.005071459628435931,0.0032555667420958033,0.009147464305771407,0.002192960559547324,0.017870509694857713,0.01943043588210874
0.873,0.005054245558949251,0.0032654385720354523,0.009042723644920697,0.002211115132346891,0.017464359567731874,0.019598085284948098
0.874,0.005036509152820549,0.003274835650067648,0.008938774111461578,0.002231851639666063,0.017064563279779236,0.019767938807033727
0.875,0.005018269041628122,0.003283759223230073,0.00883569258803201,0.0022552294907407506,0.01667124509227696,0.01993996063682817
0.876,0.004999544387347974,0.0032922108584865534,0.008733554505198395,0.0022813076433537416,0.016284521304824415,0.020114117572977062
0.877,0.004980354856257103,0.0033001924396420432,0.00863243377557928,0.002310144543137289,0.0159045002208105,0.02029037917267558
0.878,0.004960720592169937,0.003307706164028023,0.008532402731445274,0.0023417980608956886,0.015531282126022136,0.020468717889684854
0.879,0.0049406621890365765,0.00331475453895327,0.008433532065728904,0.002376325428023714,0.015164959280370345,0.020649109201608527
0.88,0.004920200662931526,0.0033213403779091244,0.008335890776372902,0.0024137831701120205,0.014805615922676634,0.02083153172613189
0.881,0.0048993574234566135,0.0033274667965114135,0.008239546113949463,0.002454227038841501,0.014453328288420437,0.02101596732597028
0.882,0.004878154244571754,0.003333137208154932,0.00814456353248984,0.0024977119422792725,0.014108164640300035,0.02120240120228576
0.883,0.004856613234854475,0.00333835531935212,0.008051006643466503,0.0025442918737014777,0.013770185311410827,0.021390821976339697
0.884,0.00483475680717642,0.003343125124725568,0.007958937172865877,0.0025940198390808104,0.013439442760805734,0.021581221759182832
0.885,0.004812607647774956,0.0033474509016236595,0.007868414921278828,0.0026469477833869102,0.013115981641179122,0.021773596209257538
0.886,0.004790188684691518,0.0033513372043296086,0.00777949772692184,0.0027031265158540463,0.012799838878404978,0.02196794457788063
0.887,0.004767523055546086,0.0033547888578363007,0.007692241431489023,0.002762605634372903,0.012491043762653148,0.02216426974265602
0.888,0.004744634074620728,0.0033578109511627763,0.007606699848732382,0.0028254334491627266,0.012189618050798849,0.022362578228918583
0.889,0.004721545199234571,0.003360408830192076,0.007522924735680086,0.002891656905877595,0.0118955760798323,0.022562880219337545
0.89,0.0046982799954032785,0.003362588090012704,0.0074409657664248645,0.002961321508296467,0.011608924890970127,0.022765189551819245
0.891,0.004674862102781335,0.0033643545667455033,0.007360870508433179,0.00303447124074106,0.011329664364165232,0.022969523705852826
0.892,0.004651315198881964,0.0033657143288342273,0.007282684401329548,0.0031111484903595422,0.011057787362701367,0.023175903777445352
0.893,0.004627662962558598,0.0033666736677740857,0.007206450738099778,0.003191393969409806,0.01079327988754061,0.02338435444279819
0.894,0.004603929036717743,0.0033672390882519784,0.007132210648639086,0.00327524663767593,0.010536121241068305,0.023594903910885395
0.895,0.004580136990221804,0.0033674172976774783,0.007060003085552717,0.0033627436251554214,0.010286284199853784,0.02380758386510059
0.896,0.004556310278937534,0.003367215195094124,0.0069898648121006785,0.003453920155160313,0.010043735196018875,0.02402242939412696
0.897,0.004532472205892304,0.0033666398594731917,0.006921830392167407,0.0035488094679791064,0.009808434506780282,0.024239478912147318
0.898,0.004508645880511156,0.0033656985374035516,0.006855932182137245,0.00364744274524785,0.009580336451707227,0.024458774068462582
0.899,0.004484854176917606,0.003364398630199317,0.006792200324573325,0.0037498490351784235,0.009359389597215438,0.024680359646555926
0.9,0.00446111969129082,0.003362747680451577,0.006730662743628495,0.003856055178791198,0.00914553696780779,0.024904283452641014
0.901,0.004437464698285372,0.003360753358053279,0.006671345142150122,0.003966085737297176,0.008938716263570184,0.02513059619375769
0.902,0.004413911106540808,0.0033584234457293837,0.006614271000465394,0.004079962920771659,0.008738860083432897,0.025359351345512645
0.903,0.004390480413337393,0.0033557658241076586,0.0065594615768508014,0.004197706518259836,0.008545896153709686,0.025590605009604105
0.904,0.004367193658490666,0.003352788456367446,0.006506935909706701,0.004319333829457505,0.008359747561434908,0.025824415761315313
0.905,0.004344071377616586,0.0033494993725044714,0.0064567108214780705,0.0044448595981192015,0.008180332992039883,0.02606084448719503
0.906,0.00432113355493382,0.0033459066532517396,0.006408800924379835,0.004574295947361143,0.008007566970942369,0.026299954213142372
0.907,0.00429839957579317,0.003342018413702058,0.006363218627991618,0.004707652317044988,0.007841360108656149,0.02654180992307778
0.908,0.00427588817913493,0.0033378427866858954,0.00631997414878021,0.004844935403444873,0.007681619349048739,0.026786478368331944
0.909,0.00425361741007649,0.003333387905966541,0.006279075521591881,0.004986149101409472,0.007528248220380718,0.027034027867849336
0.91,0.00423160457282951,0.0033286618893214217,0.0062405286131359886,0.0051312944492324895,0.007381147088758106,0.027284528099309795
0.911,0.004209866184141325,0.0033236728215848737,0.006204337137459836,0.005280369576442944,0.007240213413630075,0.02753804988133427
0.912,0.004188417927449351,0.00331842873773409,0.006170502673394543,0.005433369654724412,0.007105342004971141,0.02779466494704568
0.913,0.004167274607929604,0.003312937606105044,0.006139024683933454,0.005590286852169344,0.006976425281797288,0.02805444570937318
0.914,0.004146450108610671,0.003307207311827506,0.006109900537487789,0.005751110291067714,0.006853353531677427,0.028317465018613788
