time,RGLTMED,RRF,RADDLONG,RST,RTA,RGM,LGLTMED,LRF,LADDLONG,LST,LTA,LGM
0.0,0.007526337029888338,0.0018638656997055224,0.005691764746592488,0.001381660125260678,0.06276437217387906,0.00011567015731633034,0.11372836552268614,0.009979234019638914,0.003640379732298284,0.003008970118966952,0.0028915459704916403,0.018399686192561496
0.001,0.00813229097390825,0.002489009403634781,0.005932373927913193,0.0018276491258771808,0.0697981525570111,0.0007539206068193171,0.10339620228546403,0.010447135591332786,0.004255033997197002,0.0024441709054690117,0.001329162016056004,0.019765387130706857
0.002,0.008747555358195245,0.0031130495679483855,0.0061742225602407184,0.002272434870985667,0.07679534073339868,0.001389563364543391,0.09308876022127258,0.010916664549292026,0.004868478829199628,0.0018818684136187546,0.00022763773802315628,0.02112002858893068
0.003,0.009371843815204868,0.0037355691515852034,0.00641713285426031,0.0027156871486542023,0.08375074116664419,0.0020221998645699527,0.08281164274525825,0.011387479702700872,0.00548033671241783,0.0013223837134971426,0.0017779586545486632,0.02246242548712453
0.004,0.010004858103265384,0.0043561517625344765,0.006660924478308877,0.003157075262544619,0.09065919994342533,0.00265143492692261,0.07257041334479779,0.011859236504883092,0.006090231925596079,0.0007660334474423474,0.003320917838176765,0.023791399742972376
0.005,0.01064628833559648,0.004974382258956513,0.0069054148134043754,0.0035962684795487797,0.09751561358768733,0.00327687733466855,0.062370588925809316,0.012331587567991688,0.006697791089683141,0.00021312934988906477,0.0048556455586043585,0.02510578227474572
0.006,0.011295813222501795,0.005589847348272055,0.007150419213446676,0.004032936480120934,0.10431493778151583,0.0038981404042335416,0.052217633306575625,0.012804183184083343,0.007302643711359437,0.0003360222229948741,0.0063812866492356,0.026404415022758546
0.007,0.011953100325914606,0.006202136182630418,0.007395751269873604,0.004466749810437865,0.11105219596107384,0.00451484254747419,0.042116950873391075,0.013276671850933485,0.007904422721099511,0.000881120752662561,0.007897001877450977,0.02768615298615037
0.008,0.012617806325510279,0.006810840949264308,0.007641223080140394,0.004897380335505319,0.11772248775862307,0.005126607824155265,0.03207388041124474,0.013748700800998126,0.008502765004331725,0.0014218720053560156,0.009401969282763573,0.02894986627185721
0.009,0.013289577295712788,0.00741555745438458,0.007886645519429185,0.005324501692415088,0.12432099726486542,0.005733066483606978,0.022093689121641398,0.014219916532005255,0.009097311924270424,0.001957988466040548,0.010895385479265284,0.03019444215268987
0.01,0.013968048993003232,0.008015885699376592,0.008131828515046676,0.005747789742950555,0.13084300108935604,0.006333855494378009,0.01218156683845207,0.01468996533776824,0.009687709835001236,0.0024891897581248066,0.012376466918852804,0.03141878713147831
0.011,0.014652847153006975,0.008611430448135131,0.008376581322954865,0.00616692302483756,0.1372838762001579,0.006928619060788714,0.0023426204515118124,0.01515849383793405,0.010273610583390755,0.0030152030481016205,0.01384445111184076,0.03262182900826912
0.012,0.01534358779695235,0.009201801784459472,0.008620712805915493,0.006581583200985115,0.14363910752678177,0.007517009125307346,0.0074181314533600775,0.015625149505456928,0.010854671998487163,0.003535763434291744,0.015298597801647433,0.03380251894761663
0.013,0.016039877547105796,0.009786615658444674,0.008864031712716864,0.006991455506109294,0.14990429531242802,0.00809868585570393,0.01709576373012793,0.016089581190752204,0.011430558367162828,0.004050614318940572,0.016738190090427398,0.03495983354302215
0.014,0.01674131395084503,0.01036549442087921,0.009106346958008639,0.007396229190231534,0.15607516220291884,0.008673318116016987,0.02668544957704342,0.01655143964151388,0.012000940894855712,0.004559507762983201,0.018162535512689378,0.0360927768756862
0.015,0.017447485813041258,0.01093806734469079,0.0093474679022278,0.007795597958559645,0.16214756006038566,0.009240583920382888,0.036182465203795214,0.017010378017330328,0.012565498150360179,0.0050622048228090915,0.01957096705426399,0.037200382564717846
0.016,0.018157973536406736,0.011503971132585259,0.009587204631182322,0.008189260407326029,0.16811747649013348,0.009800170868875382,0.045582194256352355,0.017466052398245682,0.0131239164937038,0.005558475868394605,0.020962844114255707,0.038281715805979485
0.017,0.01887234946951164,0.012062850410106752,0.009825368234810162,0.008576920455172029,0.17398104106904816,0.01035177656451475,0.054880131995804986,0.01791812228645544,0.013675890486129492,0.006048100882236442,0.022337553407968856,0.039335875396717644
0.018,0.019590178262105556,0.012614358203463627,0.010061771084673456,0.008958287769707092,0.1797345312639642,0.010895109010649655,0.06407188922896206,0.01836625110031026,0.014221123281314663,0.006530869738565262,0.02369450980915299,0.040361995743212344
0.019,0.020311017227450087,0.013158156401493655,0.010296227109738588,0.009333078188868665,0.18537437802829268,0.011429886987999354,0.07315319598985512,0.01881010665975701,0.014759326997010665,0.007006582462374277,0.02503315713027507,0.04135924884871328
0.02,0.021034416711341486,0.013693916201230638,0.010528552070002006,0.009701014136744561,0.1908971710653449,0.011955840410625383,0.08211990497261722,0.01924936166230518,0.015290223066365046,0.007475049467878235,0.02635296883995947,0.042326846279082966
0.021,0.021759920467506154,0.014221318536564944,0.010758563827527039,0.010061825033537888,0.19629966374705535,0.01247271066020762,0.09096799471738236,0.019683694148572344,0.01581354256835038,0.00793609177612789,0.027653448717100126,0.04326404110368873
0.022,0.022487066039064942,0.014740054489515495,0.010986082614452837,0.010415247699345537,0.20157877767730648,0.012980250897963912,0.09969357255188843,0.020112787956455793,0.016329026536723495,0.008389541211575108,0.02893413144149687,0.044170129809181696
0.023,0.023215385145807295,0.015249825683678527,0.011210931297549985,0.010761026751413152,0.206731606889707,0.013478226353593427,0.10829287729241278,0.020536333162936536,0.016836426247020735,0.00883524057751197,0.030194583121099128,0.0450444541839479
0.024,0.023944404077051864,0.0157503446593693,0.011432935638905063,0.011098914994517716,0.2117554216702478,0.013966414590630494,0.11676228170840423,0.020954026512548157,0.01733550348109243,0.009273043810338909,0.03143440175610163,0.045886403171095665
0.025,0.024673644090096234,0.01624133523004578,0.01165192455228884,0.01142867380412618,0.21664767199604382,0.0144446057476314,0.1250982947557335,0.0213655718315498,0.017826030768735047,0.009702816112749132,0.032653217640197234,0.046695414688018
0.026,0.025402621814389223,0.01672253281949754,0.011867730354762683,0.011750073501925739,0.22140599058222327,0.014912602754706456,0.13329756358375178,0.021770680426846375,0.018307791606006162,0.010124434065929772,0.03385069369934647,0.047470977410657374
0.027,0.026130849661727115,0.01719368477937829,0.012080189013063255,0.012062893723350405,0.2260281955302958,0.015370221524949315,0.14135687532142027,0.022169071468816793,0.0187805806499062,0.01053778572096609,0.035026525768507906,0.04821263252072159
0.028,0.026857836242875594,0.017654550686573192,0.012289140384321459,0.012366923776669073,0.23051229257300435,0.015817291120509776,0.1492731586476174,0.022560472357197776,0.019244203889131156,0.010942770669713076,0.03618044280684588,0.04891997541405741
0.029,0.02758308679101913,0.018104902619937108,0.012494428450720465,0.01266196299322668,0.23485647691311537,0.01625365389310524,0.15704348515045008,0.02294461906936506,0.019698478790722892,0.01133930009536969,0.03731220705205554,0.04959265736839383
0.03,0.02830610359246998,0.01854452541591209,0.012695901547759732,0.012947821068416904,0.23905913465637876,0.01667916559893778,0.16466507048005755,0.023321256490458284,0.020143234422524726,0.011727296803112568,0.038421614114427426,0.05023038716858346
0.031,0.029026386425005577,0.018973216902552364,0.012893412585875317,0.013224318392992516,0.24311884384165777,0.017093695488125164,0.17213527529918143,0.023690138724970188,0.02057831155144746,0.012106695231053543,0.039508493011317834,0.050832932687375584
0.032,0.029743433004222854,0.019390788111490198,0.013086819265177173,0.013491286374332792,0.2470343750735625,0.017497126368801845,0.179451606035597,0.02405102938955307,0.021003562717635746,0.012477441441892313,0.040572706142689714,0.0514001224197582
0.033,0.030456739438266232,0.019797063467401302,0.013275984283144911,0.013748567747284692,0.2508046917648854,0.01788935464622684,0.18661171544057198,0.024403701886890408,0.021418852284726494,0.012839493095547128,0.04161414920848263,0.05193184696886821
0.034,0.031165800691259866,0.020191880954452998,0.013460775535074479,0.013996016874258005,0.25442894999768245,0.018270290337251468,0.1936134029575879,0.02474793966045668,0.021824056466425188,0.013192819403115001,0.04263275106874496,0.052428060481447596
0.035,0.03187011105567133,0.02057509225926062,0.013641066307158183,0.01423350003426517,0.25790649801302284,0.01863985706064381,0.20045461490582248,0.025083536429990765,0.022219063329799386,0.013537401062465457,0.043628473547576256,0.05288878203081166
0.036,0.03256916463379703,0.02094656288977475,0.013816735462056607,0.014460895700642799,0.2612368753403723,0.01899799200378795,0.20713344448305473,0.02541029640742541,0.022603772775642135,0.013873230175795552,0.04460131118215523,0.05331409694517384
0.037,0.033262455828427656,0.02130617226955198,0.013987667616885763,0.01467809480727382,0.2644198115781948,0.019344645866366045,0.21364813159287815,0.025728034493061085,0.022978096496416876,0.014200310149477884,0.04555129091820533,0.05370415807906696
0.038,0.03394947984268425,0.021653813806860853,0.0141537533135072,0.014885001003117293,0.26745522483791845,0.019679782781625712,0.21999706250112588,0.026036576451750525,0.023341957912214644,0.014518655576502951,0.04647847175329347,0.05405918702553907
0.039,0.034629733188950955,0.021989394938098226,0.014314889181035071,0.01508153089491242,0.2703432198639808,0.020003380215909566,0.22617876932670522,0.026335759068933828,0.023695292085262727,0.014828292101873995,0.04738294432930747,0.05437947526666806
0.04,0.03530271420673134,0.022312837145110356,0.014470978090434706,0.015267614277899471,0.2730840858432178,0.02031542884717369,0.23219192937234515,0.026625430286353797,0.02403804561358228,0.015129256271297954,0.04826483047539534,0.054665385259905434
0.041,0.03596792358920752,0.02262407594605394,0.014621929301137263,0.015443194354428112,0.27567829391750115,0.020615932423280126,0.23803536430123032,0.0269054493173523,0.024370176504467454,0.015421595363568994,0.04912428270256122,0.05491735145764136
0.042,0.036624864918199516,0.02292306085959223,0.014767658599521205,0.015608227940295849,0.2781264944140257,0.020904907600870853,0.24370803916578293,0.027175686741673654,0.024691654028634637,0.015705367207043786,0.049961483651112734,0.05513588125735729
0.043,0.0372730452071322,0.023209755342299396,0.014908088429128354,0.01576268565866463,0.2804295138079269,0.021182383765748446,0.24920906129484352,0.027436024579760566,0.025002458555903422,0.015980639980635373,0.05077664549212405,0.05532155587972936
0.044,0.037911975451540805,0.023484136699340512,0.015043148012437503,0.015906552121412832,0.28258835143204364,0.0214484028356541,0.25453767904526536,0.027686356346638987,0.025302581373407143,0.01624749199976573,0.051570009284088274,0.055475031172075126
0.045,0.03854117118661664,0.023746195968711283,0.01517277346397351,0.016039826097801097,0.2846041759488035,0.0217030190463841,0.2596932804234767,0.027926587085594184,0.025592024487312327,0.016506011487738285,0.052341844286067564,0.055597038334674796
0.046,0.039160153051187745,0.02399593777951601,0.015296907894484903,0.01616252067027354,0.2864783215995115,0.0219462987221949,0.2646753915820554,0.02815663338193671,0.025870800409088433,0.016756296333060333,0.05309244722876301,0.05568838456761055
0.047,0.0397684473575266,0.02423338018496038,0.015415501505929687,0.016274663377278065,0.2882122842466634,0.022178320031386305,0.2694836751957982,0.028376423357261257,0.026138931927270247,0.01699845383322025,0.05382214154512863,0.0557499536358996
0.048,0.040365586666300135,0.02445855447091556,0.015528511676989092,0.01637629634295908,0.2898077172251451,0.02239917272797993,0.27411792872133006,0.028585896644647925,0.02639645186568826,0.01723260042555644,0.05453127656230157,0.055782706350843654
0.049,0.040951110365935364,0.024671504941005104,0.01563590303882784,0.016467476393548175,0.291266427018186,0.022608957880307097,0.2785780825439884,0.028785004345277542,0.026643402829092146,0.017458861405810225,0.055220226656745273,0.055787680965529954
0.05,0.041524565255622044,0.024872288679301052,0.01573764754089207,0.016548275160385293,0.29259036877377953,0.022807787587367772,0.2828641980156914,0.028973708967003013,0.026879836937112343,0.017677370635008793,0.05588939037463017,0.05576599348241613
0.051,0.042085506131053704,0.025060975291816067,0.01583372450652421,0.016618779169427784,0.2937816416769025,0.022995784683721914,0.28697646538780275,0.029151984345392054,0.0271058155475165,0.017888270235312743,0.056539189519603454,0.0557188378709816
0.052,0.042633496371915915,0.025237646628055017,0.015924120678244134,0.016679089917199626,0.2948424841922293,0.023173082433706076,0.29091520164338464,0.029319815547829538,0.027321408969754754,0.018091710275458486,0.05717006821029797,0.055647486193333914
0.053,0.04316810853006571,0.025402396483930487,0.01600883025262926,0.016729323933077814,0.29577526919137287,0.023339824215745892,0.2946808482335593,0.029477198761288563,0.027526696169724158,0.0182878484463996,0.057782491910124086,0.05555328863569879
0.054,0.04368892491726693,0.025555330287346613,0.01608785490473002,0.01676961282781282,0.2965824989780304,0.02349616319749384,0.2982739687229372,0.029624141164318833,0.02772176446667613,0.01847684972774708,0.058376946431999845,0.055437673443630674
0.055,0.044195538191335766,0.025696564767749112,0.01616120380206843,0.016800103328178686,0.2972668002240939,0.023642262002469085,0.30169524634919553,0.029760660783839113,0.02790670922313386,0.018658886045607184,0.05895393692085678,0.05530214675883818
0.056,0.04468755193950679,0.025826227610845433,0.016228893608295013,0.01682095729760872,0.2978309188293799,0.0237782923688535,0.3049454815021216,0.029886786337249196,0.028081633528566446,0.018834135922424868,0.05951398681678281,0.05514829235554438
0.057,0.04516458125776953,0.02594445709975855,0.016290948476578034,0.016832351742670087,0.29827771471718756,0.023904434800983133,0.3080255891276556,0.0300025570602935,0.0282466478775862,0.019002784119471056,0.06005763680172025,0.054977771274342675
0.058,0.04562625332479953,0.026051401743754962,0.01634740003287851,0.016834478805212102,0.29861015657725437,0.02402087821406771,0.31093659606258617,0.030108022521112502,0.028401869843337976,0.019165021272649227,0.06058544373255385,0.05479232135154852
0.059,0.04607220796901048,0.026147219895737577,0.016398287349249606,0.016827545740032254,0.2988313165668718,0.0241278195725651,0.3136796383054152,0.03020324242085202,0.02854742374677296,0.019321043522314996,0.06109797956340249,0.054593756642041004
0.06,0.046502098227117566,0.02623207935965606,0.016443656907354765,0.016811774877913264,0.2989443649801674,0.02422546352266132,0.3162559582286442,0.03028828638125325,0.028683440322498147,0.01947105213781195,0.06159583025972626,0.05438396673354155
0.061,0.046915590892488736,0.026306156988976426,0.01648356255240152,0.016787403573904368,0.29895256489479805,0.02431402201924604,0.31866690173743917,0.030363233719672946,0.028810056381944296,0.01961525313744785,0.06207959470675836,0.054164915950366106
0.062,0.04731236705149964,0.026369638277349124,0.016518065437731447,0.01675468414070395,0.2988592668046506,0.024393713947850136,0.3209139153795274,0.030428173212066322,0.028927414474563325,0.019753856904581413,0.06254988361457892,0.05393864244472889
0.063,0.04769212260600499,0.026422716942542213,0.016547233960251366,0.01671388376706836,0.29866790324655357,0.024464764742006415,0.3229985434110576,0.03048320284455119,0.02903566254781378,0.01988707780053313,0.06300731842195163,0.05370725717396058
0.064,0.04805456878004314,0.026465594504725933,0.016571143686926415,0.016665284421159533,0.2983819834284665,0.024527405996623064,0.3249224248230733,0.03052842955422078,0.029134953606648105,0.020015133774936224,0.06345253020094957,0.053472942762303015
0.065,0.048399432608822957,0.026498479860037776,0.01658987727255581,0.01660918273884347,0.29800508786632796,0.024581875077956613,0.32668729033283406,0.030563968959917556,0.029225445373194135,0.02013824597419632,0.0638861585642743,0.05323795224637162
0.066,0.04872645740810998,0.02652158885042194,0.016603524369066414,0.0165458898969288,0.29754086303664434,0.024628414730867583,0.3282949593437443,0.030589945083643405,0.029307299947339254,0.020256638348703518,0.06430885057714261,0.0530046077039534
0.067,0.04903540322205029,0.026535143830566533,0.016612181526632172,0.016475731471337733,0.29699301605187906,0.02466727268401054,0.3297473368772535,0.030606490063368737,0.029380683468860906,0.020370537259457696,0.06472125967553805,0.05277529876620165
0.068,0.049326047247514666,0.0265393732328081,0.01661595208688102,0.01639904728020786,0.29636530936565897,0.024698701253624476,0.33104641047994116,0.03061374385794366,0.02944576578176942,0.020480171084730762,0.06512404459261818,0.05255248101384035
0.069,0.049598184233029335,0.026534511130821607,0.01661494606851835,0.016316191211874744,0.2956615555146762,0.02472295694652764,0.33219424710929946,0.030611853944925212,0.02950272010147645,0.020585769827436054,0.06551786829495998,0.0523386742581555
0.07,0.04985162685042868,0.026520796802894098,0.01660928004562742,0.0162275310376863,0.29488561190393703,0.024740300062883695,0.33319299000218644,0.03060097501216534,0.02955172268542083,0.020687564723762427,0.06590339693019488,0.0521364607078412
0.071,0.0500862060374376,0.02649847429557505,0.01659907701895598,0.01613344820961993,0.2940413756417277,0.024750994299322076,0.3340448555304013,0.030581268644023822,0.02959295250774245,0.02078578785370759,0.06628129878748984,0.05194848302283447
0.072,0.05030177130959514,0.026467791988443446,0.01658446628043486,0.01603433764269319,0.29313277843034813,0.024755306352939866,0.334752130048107,0.030552903003130006,0.029626590938609573,0.02088067175398632,0.06665224327221742,0.05177744225655153
0.073,0.05049819104009716,0.026429002160676233,0.016565583271236518,0.015930607482185066,0.2921637815181741,0.024753505526753494,0.3353171667359299,0.03051605250856693,0.029652821428709755,0.020972449033877984,0.06701689989601199,0.05162609568820012
0.074,0.05067535270640973,0.026382360560089524,0.016542569433607508,0.015822678855779045,0.29113837071802734,0.024745863337148698,0.33574238244644883,0.030470897511351413,0.029671829199426215,0.021061351994461356,0.06737593728333686,0.05149725454712777
0.075,0.050833163102688275,0.026328125975240667,0.01651557205673906,0.01571098561072426,0.29006055149615545,0.024732653123889142,0.3360302545555123,0.030417623968073154,0.029683800939203506,0.021147612251699276,0.06773002219555238,0.05139378163140389
0.076,0.050971548517281084,0.02626655981120833,0.016484744116882107,0.01559597403616552,0.2889343441354854,0.02471414966325461,0.33618331782376343,0.03035642311344612,0.029688924506560747,0.02123146036382123,0.06807981857344805,0.05131858882304223
0.077,0.05109045487471963,0.02619792566967053,0.01645024411188107,0.015478102570786256,0.28776377897636507,0.02469062878484141,0.336204161272647,0.030287491132534847,0.029687388640276046,0.02131312546335931,0.06842598659913007,0.051274634502480744
0.078,0.051189847841817814,0.0261224889338792,0.016412235890279805,0.01535784149590572,0.28655289173757315,0.024662366992558908,0.336095425079223,0.030211028833319043,0.029679382677223025,0.021392834894216912,0.0687691817782547,0.05126492086516666
0.079,0.051269712897720185,0.026040516359174995,0.01637088847512788,0.015235672614182516,0.2853057189200978,0.024629641090324363,0.33585979749384237,0.030127241320258662,0.029665096278397394,0.021470813854083337,0.06911005404357703,0.05129249114318098
0.08,0.05133005536794282,0.02595227566965817,0.016326375882607415,0.015112088914113392,0.284026293296032,0.024592727812926655,0.335500011784293,0.03003633766953479,0.029644719163568405,0.02154728504248113,0.06944924688082421,0.05136042673500799
0.081,0.05137090042269087,0.025858035161610275,0.01627887693562325,0.01498759422052557,0.282718639484816,0.02455190346251608,0.3350188432093467,0.029938530606621883,0.02961844085500054,0.021622468314703863,0.06978739647794421,0.051471844246483114
0.082,0.05139229303987847,0.025758063314238886,0.016228575072525647,0.014862702831242332,0.28138676961914383,0.024507443551167005,0.33441910602374025,0.029834036186854734,0.029586450430607536,0.02169658034186505,0.07012513089884272,0.051629892446111915
0.083,0.05139429793350378,0.025652628408338873,0.016175658151154428,0.01473793914014391,0.2800346791029685,0.02445962244992697,0.3337036505157191,0.029723073479577054,0.029548936286822973,0.021769834277261754,0.07046306928283601,0.05183774913787415
0.084,0.051376999448143224,0.025541998153397392,0.016120318248426642,0.014613837246831159,0.2786663424640887,0.024408713044784473,0.33287536007741314,0.02960586425645842,0.02950608591141336,0.021842439429249766,0.07080182107125126,0.05209861795472818
0.085,0.05134050142054661,0.025426439323687235,0.016062751455709595,0.014490940553062506,0.2772857093036679,0.024354986399995497,0.33193714830753474,0.029482632684428932,0.029458085666402834,0.021914600940843194,0.0711419852626303,0.05241572507601828
0.086,0.05128492700930611,0.02530621740379913,0.016003157670258165,0.014369801346200757,0.2758967003447136,0.024298711429117697,0.33089195614516825,0.029353605023682276,0.029405120581228586,0.021986519476306695,0.07148414969802946,0.052792315872079255
0.087,0.051210418493624545,0.02518159624407689,0.015941740382973957,0.014250980369823047,0.27450320358110847,0.02424015457415533,0.32974274903267153,0.029219009331109318,0.029347374156173063,0.022058390914951827,0.07182889037780807,0.053231651479404965
0.088,0.05111713704210145,0.02505283772631496,0.015878706462797085,0.014135046381663111,0.27310907052823374,0.024179579493114965,0.3284925141049099,0.029079075169437054,0.02928502817613523,0.022130406052452086,0.07217677081109912,0.05373700530989844
0.089,0.05100526245240934,0.024920201440056536,0.01581426593798682,0.014022575698995584,0.2717181125756993,0.024117246756253412,0.32714425740129266,0.028934033322332076,0.02921826253468795,0.022202750309866907,0.07252834139893899,0.05431165949786614
0.09,0.05087499286264903,0.02478394436977926,0.015748631774536993,0.013914151731615605,0.2703340974422434,0.024053413551280965,0.3257010010965216,0.028784115515613835,0.029147255068321016,0.0222756034506588,0.07288413885181184,0.05495890128855983
0.091,0.05072654443522726,0.024644320593248475,0.015682019651941544,0.013810364502523447,0.26896074573229334,0.023988333397706216,0.32416578074571395,0.02862955414468871,0.029072181400720574,0.02234913930593357,0.07324468564217732,0.0556820193721066
0.092,0.050560151014081366,0.024501580991287963,0.015614647736540211,0.013711810156491259,0.26760172759321893,0.023922255870494312,0.32254164253980727,0.028470582008292222,0.028993214796864133,0.02242352550818117,0.07361048949234732,0.056484300166681004
0.093,0.050376063756185224,0.024355972969208606,0.015546736452618795,0.01361909045669431,0.26626065947190314,0.023855426333210427,0.32083164056764263,0.028307432048574922,0.028910526026702618,0.02249892323379471,0.07398204289789324,0.05736902405462637
0.094,0.05017455073828693,0.024207740190129,0.015478508251504527,0.013532812269647239,0.26494110096911516,0.023788085680760813,0.3190388340818906,0.0281403370976246,0.028824283238266808,0.022575486954654438,0.07435982268661115,0.05833946157527076
0.095,0.04995589653989565,0.024057122320400658,0.015410187378883868,0.013453587038729517,0.26364655179018376,0.023720470091842426,0.31716628476657044,0.027969529630493446,0.028734651839996055,0.022653364199056832,0.07474428961280581,0.05939886957811562
0.096,0.049720401803686046,0.023904354787317696,0.015341999640544933,0.013382030246664818,0.2623804487906262,0.023652810791196313,0.3152170540043164,0.02779524152483595,0.02864179439218479,0.022732695322247923,0.07513588798649837,0.06055048734007653
0.097,0.049468382774606266,0.023749668549321028,0.015274172166765274,0.013318760867379919,0.26114616311538336,0.023585333821700367,0.31319420014161,0.02761770382727647,0.028545870507434505,0.02281361328683958,0.07553504533699484,0.061797532650480456
0.098,0.049200170819254124,0.023593289878890075,0.015206933175537968,0.013264400807770402,0.2599469974303747,0.023518259826371634,0.31110077575016426,0.027437146526600256,0.02844703676003462,0.022896243453383792,0.0759421721101014,0.06314319786743026
0.099,0.04891611192723181,0.02343544015834402,0.015140511734867256,0.013219574339954717,0.2587861832449315,0.023451803840297828,0.30893982488265614,0.027253798333865844,0.028345446604248318,0.022980703381394275,0.07635766139811186,0.06459064594923032
0.1,0.04861656619638349,0.023276335688785163,0.01507513752436113,0.013184907524640372,0.25766687832341156,0.0233861750925471,0.30671438032123144,0.027067886469487556,0.028241250301449285,0.023067102641111503,0.07678188870156412,0.06614300646462014
0.101,0.04830190730379514,0.023116187512368165,0.015011040596353383,0.013161027626260426,0.25659216418416964,0.023321576818057303,0.30442746081752076,0.026879636457320024,0.02813459485613439,0.02315554263634949,0.07721521172156955,0.06780337158576726
0.102,0.04797252196447823,0.022955201248074857,0.014948451136838004,0.013148562520510696,0.25556504368416616,0.02325820607953382,0.3020820683235444,0.026689271925797363,0.028025623960760842,0.02324611643874809,0.07765797018138568,0.06957479206808
0.103,0.047628809379571764,0.02279357694108053,0.014887599226463074,0.013148140094977579,0.25458843868790154,0.023196253599332237,0.299681185214106,0.02649701441615106,0.027914477949327037,0.023338908633786345,0.07811048567586182,0.07146027322099999
0.104,0.04727118067588231,0.022631508925784395,0.014828714601848396,0.013160387643522524,0.25366518782003367,0.023135903601302,0.2972277715029058,0.02630308319776975,0.027801293759606174,0.023433995178916395,0.07857306154738437,0.07346277087386903
0.105,0.046900058338452684,0.022469185702542593,0.014772026417549463,0.013185931255118426,0.25279804430173053,0.023077333662573907,0.29472476205664644,0.02610769509070634,0.027686204903852575,0.02353144327416546,0.07904598278702658,0.07558518734087495
0.106,0.046515875637825506,0.02230678982806663,0.014717763008930643,0.013225395197811836,0.2519896738715505,0.02302071457524518,0.29217506381323444,0.02591106429532184,0.027569341447873978,0.023631311245607755,0.07952951595975181,0.07783036738886256
0.107,0.04611907605345966,0.022144497819456984,0.014666151656299217,0.013279401298531382,0.2512426527923849,0.02296621021796078,0.28958155301188937,0.025713402229010442,0.027450829998324187,0.02373364844211066,0.08002390915268415,0.08020109421168133
0.108,0.04571011269473346,0.0219824800717581,0.014617418350584378,0.013348568319489057,0.25055946594654427,0.02291397743735001,0.28694707244407663,0.02551491736991191,0.027330793698124984,0.023838495145774168,0.08052939194562853,0.0827000854145524
0.109,0.0452894477207728,0.021820900788917238,0.014571787560861181,0.013433511331935625,0.24994250502160145,0.0228641659392986,0.2842744287347562,0.02531581510749907,0.02720935222987724,0.023945882496548627,0.08104617540305903,0.08532998901192902
0.11,0.04485755176029664,0.02165991792801629,0.014529482003981194,0.01353484108810278,0.24939406678959497,0.022816918190050897,0.2815663896637485,0.02511629759992004,0.027086621827154104,0.024055832431433815,0.08157445208685533,0.08809337944225273
0.111,0.04441490333256594,0.02149968315668405,0.014490722416519896,0.01365316339216069,0.24891635148200122,0.02277236932711985,0.2788256815371527,0.02491656363796309,0.026962715293485998,0.024168357638710135,0.08211439608906555,0.09099275360305172
0.112,0.043961988270486814,0.021340341823576626,0.01445572732923648,0.013789078471047359,0.24851146126239082,0.02273064708004558,0.27605498661892763,0.024716808515522524,0.02683774202890525,0.02428346152758901,0.08266616308404655,0.09403052690986798
0.113,0.043499299146827514,0.021182032941883706,0.014424712844220516,0.013943180346051303,0.24818139879828474,0.02269187170104896,0.27325694063257516,0.024517223906454555,0.026711808063804573,0.02440113821366457,0.0832298903993316,0.09720902938248759
0.114,0.04302733470450587,0.021024889185776018,0.014397892414862876,0.01411605620601717,0.24792806593355235,0.022656155905628958,0.27043413034257574,0.02431799774768708,0.026585016099909726,0.024521372520477112,0.0838056971046015,0.10053050176197137
0.115,0.04254659929175883,0.020869036899721437,0.014375476628783131,0.014308285783046557,0.24775326246267984,0.022623604823111796,0.26758909122473035,0.024119314128447207,0.026457465558066513,0.024644139997471216,0.08439368411800718,0.10399709166181483
0.116,0.042057602302990986,0.020714596120540052,0.01435767299380062,0.014520440731537259,0.24765868500847196,0.022594315957179582,0.2647243052341812,0.02392135318545454,0.026329252632516842,0.024769406954591632,0.0849939343290878,0.10761084975641204
0.117,0.04156085762598533,0.020561680612104526,0.014344685727020575,0.014753084011374986,0.2476459260049516,0.022568379156324297,0.26184219867927083,0.023724291003870107,0.026200470351275356,0.02489713051369811,0.0856065127373672,0.11137372600979709
0.118,0.041056883096160915,0.02041039791253891,0.014336715547031306,0.015006769276044173,0.2477164727873105,0.022545876594244275,0.258945140208734,0.023528299523811937,0.026071208642215536,0.02502725867694042,0.0862314666056599,0.11528756594764845
0.119,0.04054619995848519,0.020260849393820828,0.014333959469236287,0.015282040266450787,0.24787170679059004,0.022526882760121075,0.2560354389189273,0.02333354645219276,0.02594155440441964,0.02515973041215321,0.08686882562715498,0.11935410697573388
0.12,0.04002933233762279,0.020113130333682627,0.014336610604252358,0.015579430211181397,0.2481129028584254,0.02251146445875431,0.2531153425870269,0.02314019517968294,0.025811591584343443,0.02529447575528644,0.08751860210539085,0.12357497474832384
0.121,0.03950680671680821,0.019967329999664763,0.014344857959341052,0.01589946123401661,0.24844122866270707,0.022499680820549067,0.25018703603543874,0.022948404702618913,0.025681401256299898,0.025431415929811983,0.08818079114639181,0.1279516795904968
0.122,0.038979151425868004,0.019823531745203814,0.014358886242758044,0.016242643769423058,0.24885774423450271,0.022491583321359955,0.24725263963211858,0.022758329549646926,0.02555106170677158,0.02557046348303099,0.08885537086242255,0.13248561297848693
0.123,0.03844689613866223,0.01968181311751854,0.014378875670937468,0.01660947598680774,0.2493634016061429,0.022487215812194428,0.2443142079309409,0.022570119712882766,0.025420648522036397,0.02571152243920416,0.08954230258696484,0.1371780440823053
0.124,0.03791057138014718,0.01954224597707199,0.014405001778370993,0.01700044322424434,0.2499590445638898,0.022486614558779254,0.24137372845572977,0.02238392058337335,0.02529023467860569,0.025854488469420206,0.09024153110055363,0.14203011637487878
0.125,0.03737070804312155,0.019404896628265996,0.01443743523006274,0.017416017432390532,0.25064540851045247,0.022489808290973093,0.23843312063108296,0.0221998728906553,0.02515989063598179,0.025999249078135205,0.09095298486714933,0.14704284431197248
0.126,0.0368278369146377,0.019269825961029746,0.014476341636445038,0.017856656629263678,0.25142312043678344,0.022496818262019738,0.23549423486257426,0.022018112646282322,0.025029684431304138,0.02614568380625194,0.09167657628060168,0.1522171100874415
0.127,0.03628248821199051,0.01913708960288348,0.014521881370637415,0.018322804366552876,0.25229269900302004,0.022507658317625003,0.23255885176846694,0.021838771091255368,0.02489968177547695,0.026293664450641473,0.09241220192074447,0.15755366046854963
0.128,0.035735191128122866,0.019006738081049083,0.014574209387965532,0.018814889208156015,0.2532545547288505,0.022522334974919227,0.22962868156439645,0.021661974647326374,0.024769946150409686,0.026443055299879576,0.09315974281860132,0.16305310371623424
0.129,0.03518647338626521,0.01887881699412921,0.014633475047646262,0.01933332422165136,0.25430899029377363,0.02254084751132399,0.22670536360189658,0.021487844872220642,0.024640538907058394,0.026593713385990616,0.0939190647302798,0.16871590659534622
0.13,0.034636860803647966,0.018753367192894926,0.01469982193660848,0.019878506483465164,0.25545620094754834,0.02256318806336528,0.22379046606097885,0.02131649841877648,0.02451151936387546,0.026745488751871018,0.09469001841904634,0.1745423914800039
0.131,0.03408687686421818,0.018630424969707526,0.014773387695431111,0.02045081659855976,0.2566962750308758,0.022589341735487375,0.2208854857961986,0.021148046998053616,0.024382944905351867,0.026898224733991966,0.09547243994524363,0.18053273355941651
0.132,0.03353704230037213,0.018510022256078777,0.0148543038464314,0.021050618235463007,0.2580291946060357,0.022619286718899023,0.21799184833498042,0.02098259734640255,0.024254871080293783,0.02705175825993062,0.09626615096370812,0.18668695814961092
0.133,0.032987874683883874,0.01839218682790982,0.01494269562392068,0.021678257677513947,0.25945483619712134,0.02265299442047982,0.21511090802627372,0.02082025119643526,0.024127351699483313,0.027205920160169435,0.09707095902850016,0.19300493811654953
0.134,0.032439888026272595,0.018276942517881273,0.015038681806664548,0.022334063391158603,0.26097297163940214,0.022690429601796912,0.2122439483370488,0.02066110525182862,0.024000438932431277,0.027360535493594094,0.09788665790476138,0.1994863914161356
0.135,0.031893592388856216,0.018164309434488463,0.015142374552547534,0.023018345612147075,0.262583269037358,0.02273155052823603,0.20939218229369522,0.020505251165805875,0.02387418340292336,0.027515423886011928,0.09871302788762441,0.20613087875652786
0.136,0.0313494935027884,0.01805430418719436,0.015253879235508272,0.023731395950456563,0.26428529383089516,0.022776309128291764,0.20655675306498997,0.020352775523173234,0.023748634283084737,0.027670399880994442,0.09954983612824077,0.21293780138808013
0.137,0.030808092399240313,0.017946940117155807,0.015373294284737306,0.024473487014725424,0.2660785099690509,0.022824651162984058,0.20373873468305323,0.020203759825795337,0.023623839385764917,0.027825273302339464,0.10039683696714626,0.21990639902609868
0.138,0.03026988504994249,0.017842227532971867,0.01550071102622998,0.025244872056922454,0.26796228119022897,0.02287651640537582,0.20093913289841844,0.020058280481427597,0.02349984525500625,0.027979849627369185,0.10125377227540419,0.22703574791148573
0.139,0.02973536201815561,0.0177401739508794,0.0156362135267566,0.026045784637934707,0.26993587240770395,0.022931838830097775,0.19815888616510996,0.019916408795896214,0.023376697254474516,0.028133930370361063,0.10212037180408795,0.23432475901427785
0.14,0.02920500812020885,0.01764078433882494,0.01577987844038988,0.026876438314692334,0.27199845119901506,0.022990546812723334,0.19539886675118023,0.019778210968592783,0.023254439653733913,0.028287313475359527,0.1029963535428536,0.2417721763847644
0.141,0.02867930209763501,0.01754406136378115,0.01593177485771795,0.02773702634940404,0.2741490893977365,0.02305256333876746,0.19265988196973724,0.01964374809130996,0.023133115712285955,0.028439793717664103,0.10388142408843389,0.2493765756565092
0.142,0.028158716300046335,0.017450005641701207,0.016091964157935807,0.02862772144138956,0.27638676478598917,0.023117806222050487,0.18994267552478203,0.019513076150406254,0.023012767761333777,0.02859116311325776,0.10477527902386377,0.25713636270520995
0.143,0.02764371637889521,0.017358615989524328,0.01626049986399368,0.029548675481988758,0.27871036288562245,0.02318618833205951,0.18724792896564194,0.01938624603231453,0.02289343728318612,0.02874121133543018,0.10567760330929646,0.26504977246724715
0.144,0.027134760992361513,0.0172698896785928,0.01643742750106794,0.030500019332953286,0.28111867884557046,0.023257617829922708,0.18457626324311135,0.019263303532402107,0.022775164988312738,0.028889726137789683,0.10658807168504315,0.27311486792215534
0.145,0.02663230152165871,0.017183822688913494,0.016622784458669073,0.03148186262865102,0.28361041942227316,0.02333199841251959,0.1819282403598436,0.019144289367183813,0.02265799089006719,0.029036493782880136,0.10750634908734509,0.2813295392439739
0.146,0.026136781799061364,0.017100409963657304,0.016816599856714506,0.03249429360241115,0.28618420504968667,0.023409229564190445,0.17930436510699363,0.019029239189852262,0.022541954377156295,0.029181299475588684,0.10843209107710418,0.2896915031272504
0.147,0.025648637847999003,0.017019645663307006,0.01701889441597865,0.03353737893724251,0.2888385719949039,0.023489206815462314,0.17670508687865288,0.018918183609104283,0.022427094283973804,0.029323927800548773,0.10936494428154818,0.2981983022941856
0.148,0.02516829763549647,0.01694152341889059,0.017229680333328456,0.03461116364116033,0.29157197459487777,0.023571822008135856,0.17413080155521257,0.018811148211147113,0.022313448958943775,0.029464163162699154,0.11030454684849217,0.306847305189942
0.149,0.02469618083730052,0.01686603658372641,0.017448961162155618,0.03571567094731973,0.2943827875691854,0.02365696356604857,0.17158185344665824,0.0187081535848593,0.022201056331026862,0.029601790230122677,0.1112505289125687,0.31563570587352957
0.15,0.02423269861595552,0.016793178483104014,0.017676731698465235,0.03685090223913567,0.29726930840322713,0.02374451677076895,0.16905853728674275,0.018609215350005887,0.022089953974523072,0.029736594378218607,0.11220251307252894,0.32456052411209524
0.151,0.023778253412091416,0.016722942661337586,0.017912977873070387,0.03801683700056247,0.3002297597957882,0.023834364041499995,0.16656110026921944,0.018514344188503812,0.021980179172277993,0.02986836213423442,0.1131601148785962,0.33361860568653706
0.152,0.023333238749164358,0.016655323125660728,0.018157676650359045,0.039213432791674344,0.3032622921646108,0.02392638521839115,0.16408974411763796,0.018423545878700674,0.021871768977340098,0.029996881621157913,0.11412294332877056,0.3428066229162159
0.153,0.02289803905181131,0.01659031458647358,0.018410795934121114,0.04044062524965129,0.30636498620336705,0.024020457848498773,0.16164462718070904,0.01833682133269844,0.02176476027315105,0.030121942999979775,0.1150906013730092,0.3521210754098517
0.154,0.02247302947797719,0.016527912693500877,0.018672294480924466,0.04169832811522597,0.3095358554833124,0.024116457473639153,0.1592258665457373,0.018254166636723503,0.02165918983223598,0.03024333890935922,0.11606268642417848,0.3615582910488266
0.155,0.022058575764895196,0.01646811426747897,0.018942121821533067,0.042986433284565,0.3127728490926156,0.024214257919382077,0.15683354016320594,0.01817557309455626,0.021555094373437337,0.030360864901739705,0.11703879087475001,0.37111442720798404
0.156,0.021655034088970522,0.01641091752697931,0.01922021819082304,0.04430481088648694,0.31607385430616164,0.024313731584536057,0.1544676889761268,0.018101027274057255,0.02145251061763419,0.030474319874944755,0.11801850261822125,0.38078547221794584
0.157,0.02126275093954893,0.0163563223099772,0.0195065144666765,0.04565330938488483,0.31943669927859514,0.02441474973046038,0.15212831904824228,0.018030511056803065,0.02135147534189802,0.03058350649827058,0.11900140557433582,0.390567247071844
0.158,0.020882063006554392,0.016304330289802334,0.019800932118293164,0.047031755706246146,0.3228591557539401,0.024517182769663543,0.14981540368558605,0.017964001690838553,0.02125202543201504,0.030688231632049933,0.11998708021710448,0.4004554073782342
0.159,0.02051329708194286,0.016254945185035046,0.0201033831643692,0.048439955392134144,0.3263389417861771,0.024620900553069466,0.14752888554617682,0.01790147184655213,0.021154197933250726,0.030788306739628513,0.12097510410465628,0.4104454455607285
0.16,0.02015676997493521,0.01620817296300726,0.020413770141620304,0.04987769277657369,0.3298737244665728,0.024725772655395127,0.1452686787327733,0.01784288967563163,0.02105803009925884,0.03088354829067961,0.12196505240990146,0.4205326933037716
0.161,0.01981278844103991,0.01616402203654997,0.02073198608405877,0.051344731188270216,0.3334611226548901,0.024831668658002574,0.1430346708636186,0.017788218873114187,0.020963559439034427,0.030973778154754536,0.12295649845104331,0.4307123242430526
0.162,0.01948164912491301,0.016122503453695227,0.02105791451350829,0.0528408131775786,0.337098709712795,0.02493845842867292,0.14082672511616987,0.017737418742525938,0.020870823761885742,0.031058823983993285,0.12394901422096982,0.4409793568984539
0.163,0.0191636385171096,0.01608363108008406,0.021391429441743624,0.05436566076812411,0.34078401623881255,0.025046012397700955,0.1386446822388657,0.017690444264131577,0.02077986122043694,0.031138519583891657,0.12494217091455002,0.45132865784713727
0.164,0.01885903292483251,0.016047421773883595,0.021732395384707216,0.05591897573290892,0.34451453280520183,0.0251542018297976,0.13648836252629812,0.017647246166324005,0.020690710351732953,0.031212705271070392,0.1259355394528858,0.4617549451346142
0.165,0.018568098456772077,0.01601389555299641,0.0220806673891741,0.05750043989468076,0.3482877126979893,0.02526289909124376,0.13435756775356003,0.017607771000175326,0.02060341011653244,0.03128122821692805,0.12692869100343193,0.4722527919220113
0.166,0.018291091022133422,0.01598307575441559,0.02243609107228142,0.05910971545028245,0.35210097466206436,0.025371977911817264,0.1322520830660712,0.017571961217200647,0.02051799993688786,0.03134394277610202,0.12792119749490535,0.48281663036816785
0.167,0.018028256343953053,0.015954989185527176,0.02279850267427271,0.0607464453187281,0.3559517056535997,0.025481313641051315,0.13017167882171257,0.017539755250396888,0.02043451973209346,0.03140071079861936,0.12891263212573542,0.49344075574512286
0.168,0.017779829986803868,0.015929666267143247,0.023167729124788827,0.06241025351273302,0.359837263602277,0.0255907834984572,0.12811611238259513,0.017511087598684697,0.020353009953063068,0.031451401924652685,0.1299025698647816,0.5041193307852709
0.169,0.01754603739897715,0.01590714116808462,0.02354358812302653,0.06410074553343902,0.363754980185802,0.02570026681738865,0.12608512985411216,0.017485888914917456,0.020273511615165652,0.03149589386081691,0.13089058794293845,0.5148463902580507
0.17,0.017327093969183804,0.015887451931059383,0.023925888231968284,0.06581750878804078,0.36770216361902974,0.025809645282275695,0.12407846776910492,0.017464086097659485,0.020196066329517173,0.031534072636927354,0.13187626633416122,0.5256158457738538
0.171,0.01712320509780262,0.01587064058959939,0.024314428986960856,0.0675601130298612,0.3716761014598142,0.02591880315898348,0.12209585471503619,0.01744560238692517,0.020120716332731475,0.031565832842177614,0.13285918822435105,0.5364214908127808
0.172,0.016934566282678185,0.015856753275819438,0.024709001018765626,0.06932811082038266,0.37567406343336135,0.02602762751798144,0.12013701290219747,0.017430357464054712,0.02004750451511825,0.03159107783974207,0.13383894046641467,0.5472570059756384
0.173,0.01676136321937729,0.015845840318696545,0.025109386191290647,0.07112103801253908,0.3796933042763591,0.026136008450044136,0.11820165967119839,0.017418267555882494,0.019976474447366457,0.03160971995899285,0.13481511401963012,0.5581159644539659
0.174,0.01660377191584693,0.015837956332606228,0.025515357754115606,0.07293841425459228,0.38373106660134215,0.02624383927410951,0.11628950893855583,0.01740924554333286,0.01990767040567217,0.03162168066469568,0.13578730437131442,0.5689918377147469
0.175,0.01646195882132597,0.015833160295846267,0.025926680509936458,0.07477974351389056,0.3877845837809305,0.02635101673687447,0.11440027257974004,0.017403201074545075,0.019841137395359806,0.031626890702868525,0.1367551119385973,0.5798780013940934
0.176,0.016336080969376898,0.015831515618884906,0.02634311099704081,0.07664451461987139,0.39185108285066284,0.026457441203699545,0.11253366174953408,0.017400040682704527,0.019776921172946497,0.031625290223342914,0.13771814244802597,0.5907677413930329
0.177,0.016226286134850068,0.015833090202151092,0.02676439768689859,0.07853220182579265,0.39592778742854,0.0265630168403177,0.11068938813992446,0.017399667908672745,0.019715068266641645,0.031616828879372734,0.1386760072905813,0.6016542601680155
0.178,0.01613271300457293,0.01583795648312495,0.02719028119687861,0.08044226538863751,0.4000119206489379,0.026667651784927103,0.10886716517597887,0.017401983428574797,0.019655625995248678,0.031601465904875996,0.13962832384962195,0.6125306832088325
0.179,0.016055491361559336,0.015846191472579103,0.027620494518155805,0.08237415216655698,0.4041007081083652,0.026771258310283243,0.1070667091502188,0.017406885186418017,0.01959864248544249,0.03157917017001006,0.14057471579922715,0.623390065697135
0.18,0.015994742282454875,0.015857876779762047,0.02805476325878922,0.08432729623311166,0.40819138082029444,0.026873752975469203,0.10528774029604296,0.01741426853183474,0.01954416668741079,0.03154992021579665,0.14151481337041213,0.6342253993391788
0.181,0.0159505783479181,0.015873098626316067,0.02849280590193122,0.08630111950740584,0.41228117817614,0.02697505676711817,0.10352998380052583,0.017424026362979204,0.019492248388896228,0.03151370426844417,0.14244825358295277,0.6450296193665745
0.182,0.015923103865611386,0.015891947848723564,0.02893433407912292,0.08829503239925089,0.4163673509091353,0.027075095229866057,0.10179317075679843,0.017436049274606638,0.01944293822764868,0.031470520233991245,0.14337468044083632,0.6557956116986999
0.183,0.015912415105453614,0.015914519889021372,0.029379052858554255,0.09030843446852181,0.4204471640575309,0.02717379858590877,0.10007703905590586,0.01745022571131975,0.019396287702290217,0.03142037567380522,0.14429374508995405,0.6665162202600083
0.184,0.015918600546764854,0.015940914773558454,0.0298266610481103,0.09234071509802949,0.4245178999233615,0.027271101843465803,0.09838133421782547,0.01746644212594579,0.019352349181627232,0.03136328776144604,0.1452051059373189,0.6771842544448471
0.185,0.015941741136984346,0.015971237079520705,0.030276851513031958,0.09439125417933457,0.42857686102343834,0.027366944894061707,0.09670581016110141,0.01748458314292121,0.019311175912321066,0.03129928322136049,0.14610842873179736,0.687792496721463
0.186,0.015981910561560154,0.016005595889019387,0.030729311507966452,0.09645942281107689,0.43262137302992093,0.027461272598454795,0.09505022991027741,0.01750453172656494,0.01927282202491062,0.03122839824982314,0.14700338660689713,0.6983337103657854
0.187,0.01603917552470773,0.01604410473054225,0.031183723023155085,0.09854458400940022,0.4366487876987186,0.02755403486113531,0.09341436624020906,0.017526169354043428,0.01923734253805343,0.03115067841859862,0.14788966008648674,0.7088006473144703
0.188,0.016113596040659508,0.01608688150760616,0.03163976314450856,0.10064609343007885,0.44065648578464484,0.027645186693272577,0.09179800225626472,0.017549376192858245,0.019204793360911146,0.031066178561841715,0.1487669370546365,0.7191860561260714
0.189,0.016205225735141097,0.016134048414476396,0.03209710442722883,0.10276330010190272,0.44464187994271803,0.02773468826406638,0.09020093190953725,0.017574031282610415,0.01917523129346941,0.030974962646859328,0.14963491269086324,0.7294826900393658
0.19,0.016314112156764926,0.016185731838879912,0.03255541528259426,0.10489554717100312,0.44860241761503067,0.02782250494042447,0.08862296044631736,0.017600012720770587,0.01914871402463601,0.030877103629502002,0.15049328937206388,0.7396833151183827
0.191,0.016440297098099407,0.016242062251676955,0.03301436037748381,0.10704217265589651,0.45253558390235477,0.02790860731490416,0.08706390479122311,0.017627197852164246,0.019125300127862392,0.030772683294955566,0.15134177654237468,0.7497807184742512
0.192,0.016583816926147993,0.016303174083494895,0.03347360104612879,0.1092025102130432,0.456438904418948,0.02799297122184527,0.0855235938635364,0.017655463461783438,0.019105049054050555,0.030661792084770843,0.1521800905523201,0.7597677165541853
0.193,0.016744702921964557,0.01636920558844331,0.03393279571352263,0.11137588991261682,0.4603099481280629,0.028075577741597958,0.08400186882646088,0.017684685970581385,0.019088021121561622,0.03054452891089522,0.15300795446877918,0.7696371634876613
0.194,0.016922981629122293,0.01644029869499615,0.03439160032986874,0.11356163902394935,0.4641463301544741,0.028156413192771488,0.08249858326938582,0.017714741633848185,0.019074277503119987,0.030421000957485952,0.1538250978577027,0.7793819594792972
0.195,0.01711867521071627,0.016516598844222134,0.03484966881532372,0.11575908280982423,0.46794571456930156,0.02823546911246548,0.08101360332380238,0.017745506741825377,0.01906388020949794,0.03029132347120949,0.15463125654179385,0.788995059237129
0.196,0.017331801814578485,0.016598254815586636,0.03530665351426554,0.11796754532853294,0.4717058171416125,0.02831274222448376,0.07954680771404032,0.01777685782223416,0.019056892069832906,0.03015561954073004,0.15542617233561165,0.7984694804240787
0.197,0.017562375946353903,0.01668541854052865,0.03576220565817592,0.12018635024228545,0.475424408050907,0.028388234395540002,0.07809808774468237,0.017808671844422606,0.019053376708443627,0.030014019865972782,0.15620959276076682,0.8077983121192196
0.198,0.017810408850122923,0.016778244904050714,0.03621597583618677,0.1224148216302243,0.4790993145544929,0.028461952579555642,0.07666734722687087,0.01784082642481072,0.01905339851796705,0.029866662517788193,0.15698127074379276,0.8169747232743804
0.199,0.018075908896258343,0.016876891534582116,0.036667614472266505,0.12465228480397057,0.4827284236035677,0.02853390875018612,0.07525450234611462,0.017873200033382167,0.019057022628626793,0.029713692688505183,0.15774096429922885,0.8259919711507351
0.2,0.018358881976253853,0.016981518582355994,0.03711677230791998,0.12689806712328117,0.4863096844015333,0.028604119821756622,0.07385948147435924,0.01790567220085273,0.0190643148733769,0.029555262433875157,0.1584884362003124,0.834843409719413
0.201,0.018659331904294096,0.017092288486604202,0.03756310088920631,0.12915149880923169,0.4898411108974458,0.028672607558782964,0.0724822249292932,0.017938123726264275,0.01907534174868421,0.029391530406807614,0.15922345363956808,0.8435224980098159
0.202,0.018977260825389163,0.017209365731896464,0.038006253056796294,0.13141191375215544,0.4933207842072678,0.02873939847432358,0.07112268468407641,0.017970436884636898,0.01909017037063622,0.029222661583281753,0.15994578788139233,0.8520228083889725
0.203,0.019312669629911034,0.01733291659400836,0.03844588343769114,0.13367865031148607,0.4967468549555993,0.028804523717391117,0.06978082403088734,0.018002495634409595,0.01910886842605719,0.02904882698074732,0.16065521390865217,0.8603380347551352
0.204,0.019665558374419544,0.01746310887573181,0.03888164893721611,0.1359510521046599,0.5001175455307503,0.028868018949807027,0.06845661720183376,0.01803418582434702,0.019131504118271712,0.028870203369322674,0.16135151006515952,0.8684620006289061
0.205,0.02003592670859025,0.01760011163301138,0.03931320922985374,0.1382284687822061,0.5034311522463946,0.028929924212898174,0.06715004895078698,0.018065395399638716,0.019158146107180037,0.0286869729760372,0.16203445769585859,0.8763886671254684
0.206,0.02042377430807772,0.017744094891829224,0.039740227247566026,0.14051025678604567,0.5066860474034418,0.028990283784573443,0.0658611140996743,0.018096014606930493,0.019188863443287033,0.028499323182400876,0.1627038407864652,0.884112140791293
0.207,0.020829101313072244,0.017895229356174457,0.040162369664315654,0.14279578008784746,0.5098806812460159,0.029049146027343316,0.06458981705256467,0.018125936198013035,0.019223725495372837,0.028307446215591753,0.16335944560413307,0.8916266812879502
0.208,0.02125190877229509,0.01805368610745903,0.04057930737561526,0.14508441090404667,0.5130135838054992,0.02910656322786789,0.06333617128080589,0.018155055631863794,0.01926280187159113,0.028111538833623516,0.1640010603406268,0.8989267089046136
0.209,0.021692199092141397,0.018219636295735593,0.040990715971988105,0.14737553038403645,0.5160833666266035,0.029162591428632006,0.06210019878228321,0.01818327127477517,0.019306162333765035,0.027911802004884228,0.16462847475934247,0.906006811879775
0.21,0.0221499764906615,0.018393250823082203,0.041396276205317,0.14966852926817206,0.5190887243697132,0.029217290252307956,0.06088192951782728,0.01821048459823329,0.019353876704800085,0.027708440582481196,0.1652414798473925,0.9128617535120415
0.211,0.02262524745606748,0.01857470001961236,0.04179567444706811,0.15196280851252472,0.5220284362844788,0.02927072271937391,0.05968140082771444,0.01823660037422232,0.019406014769054267,0.027501662973891405,0.16583986747373275,0.9194864790395209
0.212,0.02311802120948738,0.018764153312619308,0.04218860313740339,0.15425777987756858,0.5249013675505383,0.029322955059516858,0.05849865683121883,0.018261526867622505,0.019462646165604405,0.02729168080641584,0.16642343005399865,0.9258761222675159
0.213,0.02362831017176224,0.018961778889445273,0.04257476122415374,0.15655286647814826,0.5277064704823096,0.02937405651733931,0.05733374781213938,0.018285176025327993,0.019523840274353343,0.027078708589110417,0.16699196022247087,0.9320260119252715
0.214,0.02415613043412735,0.01916774335471798,0.04295385459061111,0.1588475032920997,0.5304427855957937,0.029424099152847022,0.05618672959319223,0.018307463661775124,0.019589666094999108,0.026862963371977133,0.16754525051150057,0.9379316777343979
0.215,0.02470150223271432,0.0193822113826285,0.04332559647114741,0.16114113762480978,0.5331094425359881,0.02947315763717754,0.055057662902042656,0.018328309640487393,0.019660192118986272,0.026644664403290507,0.16808309303870025,0.9435888561740284
0.216,0.025264450426805165,0.01960534536493496,0.0436897078537599,0.16343322952708042,0.5357056608637788,0.029521309043977997,0.05394661273167514,0.018347638051288154,0.019735486194624584,0.02642403278599751,0.16860527920235258,0.948993495930071
0.217,0.025845004980792258,0.01983730505539791,0.044045917868688035,0.165723252163702,0.5382307507008123,0.029568632636795596,0.052853647697595575,0.018365377382747572,0.019815615385602146,0.026201291134159765,0.16911159938560905,0.9541417630176988
0.218,0.026443201449789847,0.020078247211323993,0.044393964162315586,0.16801069213043746,0.5406841132300283,0.02961520965280326,0.051778839394247066,0.018381460689463395,0.019900645823199815,0.025976663230314365,0.16960184267030495,0.9590300455673985
0.219,0.027059081468791525,0.02032832523289459,0.04473359325561767,0.17029504971751772,0.5430652410483824,0.02966112308315119,0.050722261752821414,0.018395825753675956,0.019990642552424803,0.02575037368464519,0.17007579656142247,0.9636549582658483
0.22,0.027692693245218898,0.020587688800969315,0.04506456088648148,0.17257583911819271,0.5453737183670825,0.02970645745022454,0.049683990402554265,0.018408415240803742,0.02008566937238472,0.025522647596794904,0.17053324672360945,0.9680133464438324
0.221,0.02834409205462367,0.020856483514015933,0.045386632335243864,0.1748525885813951,0.54760922105402,0.02975129858212303,0.04866410203742585,0.018419176848459454,0.020185788671142534,0.02529371022113554,0.17097397673144987,0.972102289804263
0.222,0.029013340739258976,0.021134850524869794,0.04569958273281393,0.17712484050793517,0.549771516513264,0.02979573338468108,0.047662673790078845,0.018428063448617422,0.020291061255332653,0.02506378663626833,0.1713977678355168,0.975919105784298
0.223,0.02970051020911544,0.021422926178016586,0.04600319735076884,0.17939215149014684,0.5518604633976582,0.029839849611350826,0.04667978261463487,0.018435033222656248,0.02040154617476809,0.02483310141948613,0.17180439874640974,0.97946135254611
0.224,0.03040567994496222,0.02172084164806461,0.04629727187283202,0.18165409229542417,0.5538760111522016,0.029883735631287784,0.04571550467997006,0.01844004978907833,0.020517300542264687,0.024601878326888434,0.1721936454389313,0.9827268315911644
0.225,0.031128938502832514,0.022028722580145224,0.04658161264720118,0.18391024779472462,0.5558181993874131,0.029927480195896864,0.04476991477486026,0.0184430823237385,0.02063837934890712,0.024370339979729108,0.17256528097834603,0.9857135899931743
0.226,0.031870384019323204,0.02234668873292088,0.046856036919222584,0.18616021683779288,0.5576871570829165,0.029971172204161078,0.04384308572629324,0.01844410567244298,0.020764835274962798,0.024138707557590282,0.1729190753703391,0.9884199222453667
0.227,0.032630124717008185,0.022674853624936823,0.047120373044000526,0.18840361207753925,0.559483101622074,0.030014900467066362,0.04293508783206382,0.018443100455793063,0.020896718496652516,0.0239072004988198,0.17325479543594238,0.9908443717184132
0.228,0.03340827940925689,0.023013324185051292,0.04737446067861308,0.19064005974668416,0.5612063376584542,0.03005875347152017,0.042045988308669194,0.01844005316614412,0.02103407648899986,0.023676036208727918,0.17357220471247958,0.9929857317259806
0.229,0.034204978003707504,0.023362200407672465,0.04761815095371713,0.19286919939024344,0.5628572558147257,0.030102819144177565,0.04117585075539408,0.018434956256559498,0.021176953825046193,0.023445429775930407,0.17387106338141917,0.9948430461955643
0.23,0.035020362003640074,0.023721575013536892,0.04785130662442261,0.19509068355764092,0.5644363312138725,0.030147184615621506,0.04032473463537731,0.018427808221610102,0.021325391971723253,0.02321559369724779,0.1741511282238902,0.9964156099431237
0.231,0.03585458500644338,0.0240915331167339,0.04807380220036587,0.19730417745830894,0.5659441218419159,0.03019193598533872,0.03949269477437083,0.01841861366989669,0.021479429082803685,0.02298673761154401,0.17441215260445284,0.9977029685509479
0.232,0.03670781319829413,0.024472151898649996,0.04828552405495702,0.1995093585844041,0.5673812667404821,0.03023715808789437,0.03867978087782698,0.018407383388145564,0.021639099789368243,0.022759068042783315,0.17465388648348995,0.9987049178492281
0.233,0.037580225844103345,0.02486350028947683,0.04848637051381707,0.20170591630399848,0.5687484840270901,0.030282934260763863,0.03788603706688334,0.0183941343967045,0.021804434988302448,0.022532788152588284,0.17487607645828798,0.9994215030031938
0.234,0.03847201577168871,0.025265638657859024,0.04867625192247637,0.2038935514278369,0.570046568741289,0.03032934611412347,0.037111501433739834,0.018378889996330538,0.021975461629330274,0.02230809750248659,0.17507846583274303,0.9998530172087836
0.235,0.03938338984906124,0.02567861850923685,0.04885509069343464,0.20607197575264394,0.571276390516048,0.030376473302962927,0.03635620561685203,0.018361679806120357,0.0221522025011332,0.02208519182600244,0.17526079471552908,1.0
0.236,0.040314569453573486,0.026102482193380835,0.049022821332642214,0.20824091158394128,0.5724388910762267,0.03042439330181744,0.03562017439629361,0.01834253979256201,0.022334676017108535,0.02186426281076064,0.1754228001464456,0.9998632351700937
0.237,0.04126579093158644,0.026537262621662592,0.049179390445459166,0.21040009124139533,0.5735350815691709,0.030473181182523682,0.034903425309556285,0.018321512289708037,0.02252289600134046,0.021645497890691697,0.17556421625048096,0.9994437483070633
0.238,0.04223730604715384,0.026982982994552387,0.04932475672214002,0.21254925654949303,0.5745660397359104,0.030522909395499048,0.03420596828797621,0.01829864601051759,0.022716871475431492,0.02142908004847419,0.17568477441876926,0.9987428039426633
0.239,0.04322938241810753,0.02743965653990502,0.04945889090298674,0.21468815831596133,0.5755329069346987,0.03057364755510089,0.03352780531395198,0.018273996049456016,0.022916606446884178,0.02121518762826457,0.1757842035154084,0.997761902313573
0.24,0.04424230393780461,0.027907286262493954,0.04958177572346206,0.2168165557998436,0.5764368850310089,0.030625462229726255,0.03286893009904948,0.01824762387642604,0.023122099699828643,0.021003994158773895,0.17586223010902302,0.996502775733775
0.241,0.045276371180711206,0.028385864705262935,0.04969340583963321,0.21893421617068293,0.5772792331690835,0.030678416737310518,0.03222932778307541,0.018219597322173143,0.023333344588952438,0.02079566818669281,0.17591857872799874,0.9949673845787588
0.242,0.046331901789869574,0.028875373722666343,0.04979378773449982,0.2210409139598127,0.5780612644402562,0.030732570946923884,0.03160897465416856,0.01818999055524718,0.02355032883750887,0.020590373120456834,0.1759529721382894,0.9931579128848853
0.243,0.047409230844248945,0.029375784266413008,0.049882939605846964,0.22313643050429377,0.5787843424633352,0.0307879810871412,0.031007837889888756,0.018158884050668213,0.023773034340340903,0.020388267084330818,0.1759651316427419,0.9910767635709683
0.244,0.048508711203956556,0.02988705618383791,0.04996089123631985,0.2252205533836606,0.5794498778930095,0.03084469956184979,0.030425875319264137,0.01812636455037454,0.024001436972791446,0.02018950278284695,0.1759547774008463,0.9887265532932713
0.245,0.0496307138312289,0.03040913802911222,0.05002768384649856,0.22729307584920952,0.5800593248731972,0.030902774774150897,0.02986303520575947,0.018092525015558653,0.024235506406387008,0.019994227375608156,0.17592162876795345,0.9861101069492064
0.246,0.050775628085149176,0.0309419668874539,0.05008336993172882,0.22935379624521104,0.5806141774528382,0.030962250958922955,0.029319256051089038,0.01805746457089376,0.024475205932094166,0.01980258236252436,0.17586540465331887,0.9832304518484744
0.247,0.05194386198805581,0.03148546821250568,0.050128013083501774,0.23140251742091236,0.5811159659817698,0.03102316802459915,0.028794466419825117,0.018021288440706412,0.02472049229201057,0.019614703479547635,0.17578582389682126,0.9800908115730402
0.248,0.05313584246158417,0.03203955567706262,0.050161687796210136,0.2334390461316454,0.5815662535038515,0.031085561404578306,0.028288584784757133,0.017984107877072688,0.024971315520254406,0.01943072060494195,0.17568260566482977,0.9766945995497294
0.249,0.0543520155302759,0.03260413103735409,0.050184479260080135,0.23546319242683922,0.5819666321632982,0.031149461918679937,0.02780151939290504,0.017946040079835416,0.02522761879384659,0.019250757676091464,0.1755554698661545,0.9730454123620507
0.25,0.05559284649061483,0.03317908401104688,0.050196483141104205,0.23747476902257988,0.5823187196386077,0.031214895644902697,0.02733316815209829,0.017907208108525124,0.02548933829432446,0.01907493261682099,0.17540413758919446,0.9691470228309985
0.251,0.056858820043235926,0.03376429216924282,0.050197805348760484,0.2394735906567625,0.5826241556167475,0.031281883801739845,0.026883418537940795,0.017867740786121373,0.025756403080759698,0.018903357275116172,0.17522833156130313,0.9650033728971668
0.252,0.05815044038594734,0.03435962084265335,0.05018856179222249,0.24145947342592358,0.5828845983187314,0.03135044264119717,0.026452147521052016,0.017827772594604212,0.026028734974855805,0.018736137371124572,0.17502777663119518,0.96061856633786
0.253,0.05946823126510007,0.03496492304224449,0.050168878125739405,0.24343223410438183,0.5831017210862782,0.03142058335267061,0.026039221514457474,0.017787443562216433,0.02630624845876348,0.018573372455227433,0.1748022002750957,0.9559968613529233
0.254,0.06081273598272084,0.03558003939462966,0.05013888948370648,0.24539168944808945,0.5832772090379692,0.03149231197781971,0.02564449634099771,0.01774689914237064,0.02658885058625091,0.01841515587594954,0.17455133312718124,0.9511426630519583
0.255,0.062184517356767166,0.03620479809255281,0.050098740205955464,0.24733765548715328,0.5834127558018921,0.03156562933655586,0.025267817220642093,0.017706290084150794,0.02687644090784487,0.018261574757429653,0.17427490953473973,0.9460605158736145
0.256,0.0635841576316883,0.03683901486089374,0.05004858355369994,0.2492699468121124,0.5835100603304,0.03164053096422727,0.024909018777527762,0.017665772294317098,0.027168911410587537,0.018112709986142242,0.17397266813817455,0.9407550959651588
0.257,0.065012258336361,0.03748249293861362,0.049988581416557036,0.2511883758594929,0.5835708238012777,0.031717007060024456,0.024567925066525397,0.0176255066907799,0.027466146473032853,0.01796863620652955,0.17364435247570548,0.9352312035478049
0.258,0.06646944008621325,0.03813502307709628,0.04991890401104219,0.2530927522022236,0.5835967466082848,0.031795042446557294,0.024244349619066217,0.01758565904744473,0.02776802283610891,0.017829421825212265,0.17328971161229736,0.9294937552905211
0.259,0.0679563423263236,0.038796383555304535,0.04983972957096493,0.2549828818501821,0.583589525442614,0.03187461654052578,0.023938095507983047,0.0175463998304219,0.02807440959045685,0.017695129023395505,0.17290850079220899,0.9235477767121951
0.26,0.06947362301214924,0.03946634021213463,0.04975124403017259,0.25685856656561773,0.5835508504653419,0.03195570333438917,0.023648955431050934,0.017507904025591485,0.02838516818080807,0.01756581377710408,0.17250048211441482,0.9173983946292961
0.261,0.07102195822470761,0.040144646496316466,0.049653640698091236,0.2587196031976158,0.5834824025695486,0.03203827138901921,0.02337671181292593,0.017470350957588292,0.02870015242791112,0.017441525884880876,0.17206542523008203,0.911050829663624
0.262,0.0726020417171394,0.04083104353412122,0.04954711992851042,0.26056578303904404,0.583385850729844,0.032122283837367545,0.023121136925215145,0.017433924100302124,0.02901920856849074,0.017322309002520245,0.17160310806117351,0.904510388822474
0.263,0.07421458438970764,0.04152526021512624,0.049431888781977996,0.2623968912087606,0.583262849436307,0.03220769839925725,0.022881993024333067,0.017398810879024097,0.029342175313628885,0.017208200684457,0.17111331753917647,0.897782458161604
0.264,0.07586031369039518,0.042227013296162755,0.049308160682128656,0.26421270606123204,0.5831150362093674,0.03229446740742264,0.022659032506846834,0.01736520246443329,0.02966888392596024,0.017099232431389486,0.170595850363034,0.8908724955394122
0.265,0.07753997293821531,0.04293600752356251,0.0491761550661565,0.2660129986253391,0.5829440291917785,0.03238253784494133,0.02245199808191658,0.017333293558640533,0.029999158316023237,0.016995429743732315,0.17005051377532818,0.8837860234688341
0.266,0.07925432056639162,0.04365193577370103,0.04903609702963888,0.2677975320741539,0.5827514248134736,0.032471851394147225,0.022260622960437026,0.01730328217354298,0.030332815158046738,0.016896812180547147,0.16947712635570109,0.8765286220717016
0.267,0.08100412928258145,0.04437447921179226,0.048888216965887576,0.2695660612278672,0.5825387955245998,0.03256234449709704,0.0220846310604376,0.017275369401810726,0.030669664025411623,0.016803393423643686,0.16887551883039018,0.8691059221393764
0.268,0.08279018514347711,0.04510330746886732,0.04873275020005833,0.2713183320928094,0.5823076875912238,0.032653948427612864,0.021923737228250712,0.017249759180835808,0.031009507545977505,0.016715181346569276,0.16824553489679836,0.8615235983034347
0.269,0.08461328654124224,0.045838078836866074,0.04856993661840881,0.2730540814404472,0.5820596189475272,0.03274658937484916,0.021777647474901112,0.01722665805001895,0.0313521415773963,0.01663217808826384,0.1675870320621498,0.8537873623209413
0.27,0.08647424309945452,0.046578440481723674,0.0484000202932732,0.274773036430968,0.5817960770976635,0.03284018853835921,0.021646059227125463,0.01720627490173633,0.03169735540249449,0.01655438013116996,0.16689988249548635,0.845902956479717
0.271,0.08837387447633974,0.04732402867438363,0.04822324910452523,0.2764749142864511,0.5815185170601886,0.03293466223453003,0.0215286615923641,0.017188820726359084,0.032044931944767735,0.016481778383610455,0.16618397389228104,0.8378761471295461
0.272,0.09031300907331348,0.04807446903955741,0.04803987435842578,0.2781594220187115,0.5812283593479924,0.03302992201427481,0.0214251356370561,0.017174508351612373,0.03239464800395737,0.016414358266282784,0.16543921035082215,0.8297127183454731
0.273,0.09229248264692466,0.04882937682202722,0.04785015040489241,0.2798262562166958,0.5809269879772847,0.03312587479173313,0.021335154677512208,0.017163552176626778,0.032746274511650755,0.01635209980268792,0.1646655132593037,0.8214184657293193
0.274,0.09431313682245368,0.0495883571701562,0.04765433425418881,0.2814751028981001,0.5806157485004131,0.033222422983707915,0.02125838458267038,0.01715616790100593,0.033099576806742866,0.016294977713369428,0.16386282219242737,0.8129991903555237
0.275,0.09637581750769836,0.05035100543623203,0.04745268519402379,0.283105637429619,0.5802959460587097,0.03331946465948108,0.021194484088033493,0.017152572249276413,0.033454314930558136,0.01624296151376579,0.1630310958162754,0.8044606928675064
0.276,0.09848137320609898,0.05111690749318796,0.04724546440799716,0.2847175245198865,0.5799688434529401,0.033416893700578244,0.021143105120058445,0.01715298269110188,0.03381024394135255,0.016196015615541327,0.16217031280036082,0.7958087677307981
0.277,0.10063065322915497,0.051885640067278416,0.04703293459625655,0.2863104182886905,0.5796356592299929,0.03351459997005442,0.021103893130358174,0.017157617157685635,0.03416711424793813,0.016154099431173477,0.16128047273599014,0.7870491976492113
0.278,0.10282450580910063,0.0526567710862743,0.04681535959923765,0.2878839624153822,0.5792975657857166,0.03361246949079306,0.021076487439025512,0.01716669375478326,0.03452467196211405,0.016117167481607582,0.1603615970602041,0.7781877481500798
0.279,0.10506377611379202,0.05342986004282383,0.04659300402527934,0.28943779036862016,0.5789556874849973,0.03371038463232294,0.021060521586482767,0.017180430472797156,0.034882659269653185,0.016085169506753177,0.15941372998452158,0.7692301623437104
0.28,0.10734930416676904,0.05420445837263267,0.046366132882951765,0.29097152571878165,0.5786110988012766,0.03380822430559645,0.021055623693268903,0.017199044894361297,0.03524081481949389,0.016058050578630054,0.15843693942740503,0.7601821558608451
0.281,0.10968192267632602,0.054980109847119665,0.04613501121885585,0.29248478253351307,0.5782648224783641,0.033905864165168914,0.021061416827241004,0.01722275389984842,0.035598874130808034,0.016035751216988442,0.15743131794895524,0.7510494119703105
0.282,0.11206245477820259,0.055756350980165036,0.04589990376168333,0.2939771658560033,0.5779178277178361,0.03400317681819351,0.021077519377727432,0.01725177337114986,0.035956570017541954,0.01601820750729748,0.15639698368595417,0.7418375768778862
0.283,0.11449171169708641,0.056532711448496135,0.04566107457329856,0.295448272264749,0.5775710283959233,0.03410003203957221,0.021103545436193877,0.01728631789409017,0.03631363303002756,0.01600535122099768,0.15533408128499623,0.732552255206782
0.284,0.11697049033250269,0.0573087145251403,0.045418786707558244,0.29689769051281534,0.5772252813146088,0.03419629699262586,0.02113910518311311,0.017326600459808217,0.03666979191323507,0.015997109938002678,0.1542427828312044,0.7231990056599861
0.285,0.11949957077477258,0.0580838775253363,0.0451733018775659,0.29832500224395325,0.5768813844931298,0.034291836454565655,0.021183805280614105,0.01737283216542331,0.037024774081244695,0.0159934071714148,0.15312328876970768,0.7137833368647846
0.286,0.12207971375655921,0.05885771226420167,0.04492488013192371,0.2997297827823093,0.5765400755075895,0.034386513046054966,0.021237249270610634,0.017425221914322008,0.03737830610747456,0.01599416249443574,0.15197582881673466,0.7043107033997361
0.287,0.12471165804533313,0.05962972552544611,0.044673779540484244,0.30111160199213605,0.5762020298879673,0.03448018746420084,0.02129903797798764,0.017483976116393362,0.037730114230134996,0.015999291669456652,0.15080066285684476,0.6947865020040449
0.288,0.12739611778201543,0.06039941954039347,0.04442025588999312,0.30247002520394706,0.5758678595826133,0.03457271871835916,0.021368769918528253,0.017549298388549694,0.03807992487234612,0.016008706779273345,0.14959808182241793,0.685216067968152
0.289,0.130133779771347,0.06116629247648228,0.04416456238993448,0.3038046142041047,0.5755381115005307,0.03466396436821697,0.021446041711224606,0.017621389255885637,0.03842746517628834,0.016022316360334132,0.14836840855120034,0.675604671703001
0.29,0.1329253007299588,0.0619298389344534,0.04390694938887021,0.3051149282856696,0.5752132661414906,0.03475378076365768,0.021530448494611665,0.01770044585380069,0.038772463550740786,0.016040025537964863,0.14711199861756594,0.6659575154842489
0.291,0.13577130449885325,0.06268955045331656,0.04364766410154224,0.3064005253592231,0.5748937363238474,0.03484202328595439,0.021621584346780395,0.017786661631445995,0.039114650231358856,0.016061736163393934,0.14582924113325238,0.6562797303672414
0.292,0.13867237922777353,0.06344491602220657,0.04338695034698671,0.3076609631230369,0.5745798660196938,0.03492854658985682,0.021719042708636855,0.01788022605679806,0.03945375785298099,0.016087346952520534,0.14452055951372333,0.6465763732686023
0.293,0.14162907453989715,0.06419542259811668,0.04312504829787636,0.3088958002921939,0.5742719293065967,0.035013204846144536,0.021822416809963063,0.01798132432364876,0.03978952203320765,0.01611675362627015,0.14318641220682368,0.6368524242107292
0.294,0.14464189868608152,0.06494055562844006,0.04286219424128058,0.3101045978860029,0.5739701294448755,0.03509585198425306,0.0219313000977868,0.01809013706074306,0.0401216819663971,0.016149849052508276,0.1418272933808994,0.6271127837263267
0.295,0.14771131569876775,0.06567979957710329,0.04259862035092468,0.31128692057243623,0.573674598089137,0.03517634193458535,0.022045286666480004,0.018206840043275694,0.040449981027125416,0.01618652338943296,0.14044373356992815,0.6173622704214061
0.296,0.1508377425560684,0.06641263845298778,0.04233455447096843,0.3124423380673725,0.5733853946428032,0.03525452887015848,0.0221639716889687,0.018331603906885832,0.04077416738204524,0.016226664230488574,0.13903630027341599,0.6076056186965139
0.297,0.1540215463668389,0.06713855633921662,0.04207021991126009,0.31357042658529066,0.5731025057640986,0.03533026744721425,0.022286951848357887,0.018464593864298835,0.04109399460903338,0.016270156750799427,0.13760559850890924,0.5978474766272119
0.298,0.15726304158742904,0.06785703792180588,0.04180583525388907,0.314670770336958,0.5728258450315342,0.035403413044531894,0.022413825769288156,0.018605969424730227,0.04140922232242822,0.016316883855206493,0.13615227131512128,0.588092404005308
0.299,0.16056248728064318,0.06856756901621981,0.04154161417078981,0.31574296306869654,0.5725552527760042,0.035473822001165486,0.022544194448291827,0.01875588411621707,0.04171961680317581,0.016366726327911224,0.13467700020368828,0.5783448705421046
0.3,0.16392008442715117,0.06926963709043951,0.041277765252093084,0.3167866096373237,0.5722904960857155,0.03554135185240904,0.02267766168247594,0.018914485210996913,0.042024951632656515,0.016419562983779317,0.1331805055575688,0.5686092542342098
0.301,0.1673359732993364,0.06996273178339425,0.04101449184490616,0.31780132761489716,0.5720312689893834,0.03560586156379103,0.02281383449584614,0.019081913454148575,0.04232500832890648,0.0164752708212661,0.13166354697393,0.558889839891799
0.302,0.1708102309073265,0.07064634541792904,0.04075199190218217,0.31878674891787173,0.5717771928225583,0.03566721176295576,0.022952323562569734,0.01925830279560561,0.042619576983995516,0.016533725176963523,0.13012692354931274,0.5491908178287017
0.303,0.17434286852671982,0.07131997350780651,0.04049045784137868,0.3197425214560998,0.5715278167815223,0.03572526496929256,0.02309274362651838,0.019443780125758,0.04290845690120934,0.016594799881693486,0.12857147410486225,0.5395162827132322
0.304,0.1779338293173615,0.07198311525858453,0.04023007641258828,0.32066831079781244,0.5712826186684592,0.03577988582118624,0.02323471391635296,0.01963846501480855,0.043191457230709406,0.016658367418153987,0.12699807734948432,0.5298702325782163
0.305,0.18158298604232756,0.07263527406246174,0.03997102857589667,0.321563801847228,0.5710410058304806,0.03583094130078273,0.023377858555516294,0.019842469456059768,0.04346839760223089,0.016724299080089183,0.12540765197888176,0.5202565679884076
0.306,0.18529013889614004,0.07327595798730555,0.03971348938775418,0.3224287005314645,0.5708023162936479,0.03587830095619357,0.023521806966413383,0.02005589761332679,0.04373910875330575,0.016792465132960725,0.12380115670861858,0.5106790913632517
0.307,0.18905501345101708,0.07390468026020858,0.039457627896163784,0.3232627354931465,0.5705658200916822,0.035921837121061076,0.023666194268177853,0.020278845572657512,0.04400343315143015,0.016862734976098033,0.12217959023958752,0.5011415064529566
0.308,0.19287725872974698,0.07452095974592908,0.03920360704449265,0.3240656597843764,0.5703307207877517,0.035961425131400986,0.02381066166737832,0.02051140109855146,0.044261225608532115,0.01693497730633141,0.120543991154517,0.4916474179655744
0.309,0.19675644541339854,0.07512432142065818,0.0389515835837737,0.32483725255695145,0.570096157186685,0.03599694353964327,0.02395485684110171,0.020753643394876984,0.04451235388609145,0.017009060283060387,0.11889543774430703,0.4822003313424896
0.31,0.20069206419163382,0.0757142968416505,0.03870170799334268,0.32557732074277496,0.5698612052339204,0.036028274325799796,0.02409843431178438,0.021005642870740606,0.04475669928920695,0.01708485169469796,0.11723504776311398,0.47280365267881336
0.311,0.20468352426286401,0.07629042461328894,0.03845412440972204,0.32628570071762736,0.5696248800963746,0.03605530310567678,0.024241055813191106,0.021267460911529073,0.04499415724792326,0.017162219126417858,0.11556397811133105,0.4634606887841507
0.312,0.20873015199093645,0.07685225085026058,0.038208970563651266,0.32696225994081585,0.5693861384193207,0.03607791933607802,0.024382390646846656,0.021539149655438874,0.0452246378840385,0.017241030129066172,0.1138834244456364,0.4541746473780521
0.313,0.21283118972464296,0.07739932963850943,0.037966377725188336,0.32760689856260666,0.5691438807518854,0.03609601651701197,0.02452211602825534,0.021820751775789026,0.045448066561599165,0.017321152389093295,0.11219462071539443,0.4449486374133685
0.314,0.21698579478585445,0.07793122349460871,0.03772647065680292,0.328219550990819,0.5688969541323946,0.0361094923909159,0.02465991742216691,0.02211230026949929,0.0456643844193008,0.01740245389930658,0.11049883862483656,0.43578566951978703
0.315,0.22119303863173337,0.07844750382411937,0.037489367574388796,0.32880018740766587,0.5686441548233934,0.03611824913893426,0.024795488866201774,0.022413818252127488,0.045873548883034014,0.017484803130212397,0.10879738702073576,0.4266886565589764
0.316,0.2254519061959919,0.07894775137936176,0.0372551801160975,0.3293488152278934,0.5683842311854123,0.036122193574222035,0.024928533282108457,0.022725318759885003,0.04607553415685131,0.017568069201679408,0.1070916112057458,0.4176604142821672
0.317,0.2297612954137133,0.07943155671695744,0.03702401331897876,0.32986548048957154,0.5681158866784572,0.03612123733220838,0.025058762774025682,0.023046804559078395,0.046270331690699724,0.017652122054595182,0.10538289217801264,0.4087036620807207
0.318,0.23412001693380413,0.07989852065534321,0.03679596560333658,0.3303502691694011,0.5678377829806738,0.036115297057675175,0.025185898913151598,0.02337826796341333,0.046457950623253065,0.0177368326221911,0.10367264579809583,0.39982102382013107
0.319,0.23852679402273447,0.0803482547324212,0.03657112876480218,0.3308033084149795,0.5675485432141811,0.03610429458851306,0.025309673008232114,0.023719690659599547,0.04663841819815982,0.01782207300065493,0.101962321884713,0.3910150287480256
0.32,0.2429802626627643,0.08078038166345351,0.036349587974113265,0.3312247676871611,0.5672467552684546,0.03608815713593818,0.025429826361392502,0.02407104354169965,0.046811780152041516,0.017907716618754795,0.10025340324120387,0.3822881124668899
0.321,0.24747897184737455,0.08119453579932168,0.036131421784678985,0.33161485980621963,0.5669309752113975,0.03606681746098719,0.025546110508780993,0.024432286554652554,0.04697810107253674,0.017993638406092655,0.09854740461485366,0.37364261796248815
0.322,0.2520213840759464,0.08159036358527762,0.0359167021480798,0.33197384189607904,0.566599730777638,0.03604021404711362,0.02565828744563455,0.024803368547455268,0.04713746472474926,0.01807971495972559,0.09684587159125788,0.3650807966791701
0.323,0.25660587604901924,0.08196752402037803,0.0357054944377535,0.332302016221518,0.5662515249224761,0.036008291268718864,0.025766129835403235,0.02518422713650395,0.047289974344415245,0.018165824708831105,0.09515037942593402,0.3566048096335797
0.324,0.2612307395645451,0.08232568911769977,0.035497857481110395,0.33259973091359096,0.56588483942865,0.035970999555506894,0.0258694212026122,0.025574788579614937,0.04743575289616403,0.018251848077121664,0.09346253181530831,0.3482167285588382
0.325,0.26589418261478937,0.08266454436533628,0.03529384360038714,0.3328673805786774,0.5654981385515785,0.03592829555255033,0.025967956109258915,0.025974967661274197,0.04757494329518066,0.018337667642709936,0.09178395960920631,0.339918537072175
0.326,0.2705943306825682,0.08298378918804297,0.03509349866244645,0.33310540678618805,0.5650898726874531,0.035880142275889426,0.026061540314489387,0.026384667589620107,0.04770770859062494,0.018423168295125834,0.09011631946686176,0.3317121318600134
0.327,0.27532922823485956,0.08328313740914306,0.03489686213777667,0.3333142984295589,0.5646584820478049,0.03582650926346186,0.026149990917434324,0.026803779905653757,0.04783423210909267,0.018508237389152558,0.08846129245845766,0.3235993238751392
0.328,0.2800968404109708,0.08356231771216747,0.034703967168835115,0.33349459195513215,0.5642024003242114,0.03576737272099976,0.026233136483057282,0.027232184405130234,0.04795471755655849,0.01859276489517081,0.08682058261417283,0.31558183954079516
0.329,0.2848950549017021,0.08382107410141806,0.03451484064786209,0.33364687145420824,0.5637200583275818,0.035702715662516,0.026310817150932805,0.027669749073576107,0.04806938907733965,0.018676643545638704,0.0851959154226437,0.3076613219563639
0.33,0.2897216840150366,0.084059166360466,0.03432950330424894,0.3337717686146878,0.5632098875874982,0.03563252804484997,0.02638288472689913,0.028116330034794027,0.04817849126886382,0.018759768977416446,0.08358903628065041,0.29983933209934904
0.331,0.29457446692295947,0.08427637050738214,0.03414796980144807,0.33386996253019363,0.5626703238981721,0.03555680689574255,0.02644920275751265,0.02857177151324824,0.048282289151327366,0.018842039869552636,0.08200170889564003,0.292117350018636
0.332,0.2994510720829368,0.08447247924529806,0.03397024884336955,0.3339421793656504,0.5620998107989462,0.03547555643480095,0.026509646587174758,0.029035905810702433,0.048381068091583615,0.018923358076270453,0.08043571364253083,0.2844967760147073
0.333,0.3043490998266034,0.08464730240676596,0.03379634329010174,0.333989191878958,0.5614968029787458,0.03538878818679543,0.02656410339780008,0.029508553297470586,0.048475133680942355,0.019003628754800838,0.0788928458759851,0.27697893180326666
0.334,0.30926608510721865,0.08480066739017574,0.03362625028273911,0.33401181879860586,0.5608597695956774,0.03529652108671183,0.026612472230789663,0.029989522418719817,0.048564811566774925,0.019082760487815605,0.07737491419931548,0.2695650616596766
0.335,0.3141995003967363,0.08493241958631681,0.03345996137697248,0.33401092405713123,0.5601871975047739,0.035198781576103934,0.026654663991109495,0.0304786097161686,0.0486504472381179,0.01916066540014981,0.07588373869111836,0.2622563335424488
0.336,0.31914675872276455,0.08504242279290135,0.03329746268497216,0.33398741588045777,0.5594775943886353,0.035095603690306794,0.026690601433239054,0.03097559986555856,0.04873240576568897,0.019237259269575546,0.07442114909079829,0.2550538401950139
0.337,0.32410521683544,0.08513055961468706,0.03313873502505705,0.33394224573321085,0.5587294917869859,0.03498702913610017,0.02672021912879179,0.031480265730181145,0.04881107149691502,0.019312461631361532,0.07298898294422329,0.24795860022571067
0.338,0.32907217849418946,0.08519673184656851,0.03298375407848959,0.333876407120082,0.5579414480220566,0.034873107359389685,0.026743463415683136,0.0319923684306986,0.04888684770676811,0.019386195876438677,0.07158908371080629,0.2409715591667483
0.339,0.33404489786439434,0.08524086083690356,0.032832490552742816,0.333790934243406,0.5571120510172971,0.03475389560244997,0.026760292328797272,0.03251165743148108,0.048960156205178414,0.01945838934299594,0.07022329883340135,0.23409359051336484
0.34,0.3390205830138975,0.08526288782815301,0.03268491035048207,0.3336869005170991,0.5562399210072319,0.03462945895021821,0.026770675512164527,0.033037870643641054,0.0490314369018674,0.01952897340136765,0.06889347777237652,0.22732549674481145
0.341,0.3439963994989883,0.08526277427189416,0.032540974743504036,0.3335654169372094,0.5553237131364074,0.03449987036511072,0.026774594112682345,0.033570734544922314,0.04910114732929902,0.019597883532109228,0.0676014700053548,0.22066801032886707
0.342,0.3489694740290518,0.08524050211524513,0.03240064055090497,0.33342763030949524,0.5543621199451525,0.03436521070973889,0.026772040655459257,0.03410996431653862,0.049169762124446785,0.0196650593971252,0.06634912299408013,0.21412179471143067
0.343,0.35393689819850715,0.08519607405603032,0.032263860320722135,0.3332747213346693,0.5533538737393331,0.034225568756928344,0.026763018900878285,0.034655263997065255,0.049237772469983204,0.01973044490373974,0.06513828011993329,0.20768744529243607
0.344,0.35889573227457783,0.08512951376430167,0.03213058251436519,0.3331079025523385,0.5522977488402812,0.0340810411864202,0.026747543683543602,0.03520632665345856,0.04930568549560014,0.019793988261594838,0.06397077858956081,0.2013654903888571
0.345,0.36384300902984035,0.08504086606830442,0.032000751693132996,0.33292841614523516,0.5511925637100358,0.03393173256760149,0.026725640733374863,0.03576283456928567,0.049374023640342816,0.019855642032254504,0.06284844731216573,0.19515639218533212
0.346,0.3687757376096821,0.08493019710336487,0.031874308706167184,0.3327375316064162,0.5500371829459515,0.03377775532766488,0.026697346479215196,0.03632445945034133,0.049443323977149636,0.019915363171432967,0.061773104749994805,0.18906054767275907
0.347,0.37369090742640226,0.08479759442247789,0.03175119087917998,0.33253654327383275,0.5488305191380025,0.033619229704524745,0.02666270783536133,0.036890862647813195,0.04951413750112023,0.01997311306373732,0.06074655674386306,0.18307828957515193
0.348,0.3785854920733427,0.08464316706756707,0.03163133220330513,0.33232676773894104,0.5475715345815851,0.033456283683901716,0.026621781971562973,0.0374616953993285,0.04958702838337791,0.02002885754989541,0.059770594315836714,0.17720988726506653
0.349,0.3834564532539115,0.0844670456004409,0.031514663523486114,0.3321095411383437,0.546259242838618,0.033289052919982215,0.02657463606705703,0.038036599088327565,0.0496625731925513,0.020082566946392405,0.05884699145168498,0.17145554766800813
0.35,0.3883007447212309,0.0842693820924789,0.031401112725883855,0.331886216339206,0.5448927101403035,0.03311768063916517,0.02652134704930019,0.03861520552230743,0.04974136008605697,0.020134216057478983,0.057977502866134935,0.16581541615627782
0.351,0.39311531622444307,0.08405035007214234,0.031290604923940195,0.33165816003014476,0.5434710566261786,0.032942317526511534,0.026462001318147913,0.03919713723058164,0.049823987973379766,0.020183784179485076,0.05716386175420455,0.1602895774326202
0.352,0.3978971174576102,0.08381014442948892,0.031183062642839748,0.33142674972932057,0.541993457415599,0.03276312159460443,0.026396694456263466,0.03978200778214713,0.0499110656536543,0.020231255097396907,0.056407777532180785,0.15487805640387964
0.353,0.4026431020068886,0.08354898127693526,0.031078406002216463,0.3311933707210803,0.5404591435094172,0.032580258034765656,0.026325530926666365,0.040369422124239746,0.05000321092994904,0.020276617073664203,0.05571093357183112,0.1495808190447098
0.354,0.40735023129125353,0.0832670977656464,0.030976552896979686,0.33095941293193903,0.5388674025212061,0.03239389905069084,0.02624862375827525,0.040958976941982576,0.050101049702699255,0.020319862829190127,0.05507498493159909,0.14439777325137398
0.355,0.4120154784915959,0.0829647518570047,0.030877419176205286,0.33072626775638253,0.537217579239201,0.032204223674788535,0.026166094220409962,0.04155026103943404,0.050205215044743075,0.020360989516523594,0.05450155608855443,0.1393287696858779
0.356,0.4166358324623654,0.08264222204877648,0.030780918820000776,0.33049532484267974,0.5355090760217264,0.032011417567736226,0.026078071487148972,0.04214285574224823,0.050316346260376635,0.02039999868519599,0.05399223867497296,0.13437360261091677
0.357,0.4212083016192803,0.08229980705565931,0.030686964114292857,0.33026796884877024,0.5337413530300764,0.03181567280189139,0.025984692292484325,0.04273633532204946,0.05043508793085996,0.020436896239216698,0.05354858922347913,0.12953201071652992
0.358,0.4257299177958213,0.08193782544400073,0.030595465823442212,0.3300455761779598,0.5319139283039211,0.031617187629345456,0.02588610057716104,0.0433302674426253,0.05056208894866272,0.020471692386738086,0.05317212692477425,0.12480367793980449
0.359,0.4301977400603751,0.08155661522050917,0.030506333360618188,0.3298295117038599,0.5300263776852108,0.031416166235478264,0.025782447128083728,0.04392421362798842,0.050698001542728306,0.020504401581916326,0.0528643314018692,0.12018823427960748
0.36,0.4346088584849076,0.08115653337490895,0.030419474955823603,0.3296211254936,0.5280783345972843,0.031212818478946254,0.025673889211133633,0.04451772975237718,0.05084348029689453,0.02053504245911348,0.05262664050467773,0.11568525660893615
0.361,0.43896039785509067,0.08073795537668535,0.030334797821501072,0.3294217495380845,0.5260694896863766,0.031007359619051763,0.025560590198294823,0.045110366552233425,0.05099918116359494,0.02056363775955184,0.052460448128659486,0.11129426948798753
0.362,0.44324952131057194,0.0803012746263592,0.030252208315666492,0.32923269449772125,0.5239995903332842,0.030800010031581285,0.02544271918999476,0.04570167016017985,0.05116576047487313,0.020590214250605563,0.052367102061015684,0.10701474598130484
0.363,0.44747343390300726,0.07984690186226956,0.030171612102573846,0.3290552464720212,0.5218684400438369,0.030590994914192402,0.025320450633638688,0.04629118266097447,0.05134387395273642,0.02061480263792513,0.05234790185779638,0.102846108482386
0.364,0.4516293860583717,0.07937526452436006,0.030092914310956096,0.32889066380141047,0.5196758977279985,0.03038054398257584,0.025193963939318366,0.046878442669422475,0.051534175720713414,0.0206374374706221,0.05240409675510391,0.0987877295490117
0.365,0.4557146769291951,0.07888680607715404,0.030016019689858134,0.32874017390986693,0.5174218768781582,0.030168891158566212,0.02506344309365996,0.04746298593008142,0.05173731731842355,0.02065815703979283,0.05253688361748126,0.0948389327522785
0.366,0.4597266576216585,0.07838198529459031,0.029940832762068336,0.32860497019725005,0.5151063446576566,0.029956274251422717,0.02492907627275742,0.048044345938613224,0.05195394672085291,0.020677003270698508,0.05274740492647236,0.09099899354208746
0.367,0.4636627342821548,0.07786127550981241,0.029867257975056263,0.32848620899043285,0.5127293209106344,0.029742934633488972,0.024791055455153383,0.04862205458443795,0.05218470736394607,0.020694021608868383,0.053036746812292056,0.08726714013150677
0.368,0.4675203710283372,0.0773251638331651,0.029795199849305395,0.3283850065624076,0.5102908771046478,0.029529116911391057,0.024649576035718823,0.04919564281425448,0.05243023717807867,0.020709260900446017,0.05340593713139317,0.08364255440216514
0.369,0.47129709271117537,0.0767741503417457,0.029724563123899605,0.3283024362285931,0.5077911352178555,0.029315068593932885,0.02450483644129172,0.04976464131586001,0.0526911676308448,0.02072277326702576,0.05385594359271647,0.08012437283255157
0.37,0.47499048749724165,0.07620874724382239,0.029655252899125427,0.3282395255294666,0.5052302665830722,0.029101039757713085,0.0243570377488665,0.05032858122151081,0.05296812278053089,0.02073461397524371,0.05438767193521286,0.07671168745077668
0.371,0.4785982092640286,0.07562947802141792,0.02958717477589844,0.328197253508572,0.5026084907012193,0.028887282711499575,0.024206383307012143,0.05088699482997336,0.05326171834151593,0.020744841301350517,0.05500196415920801,0.07340354681312823
0.372,0.4821179798052336,0.07503687655432348,0.029520234991700624,0.3281765480946438,0.49992607403665307,0.028674051660244615,0.024053078361187728,0.05143941634624411,0.05357256076274504,0.020753516390981424,0.05569959681411408,0.07019895700939048
0.373,0.4855475908469251,0.07443148622872488,0.02945434055274979,0.32817828359598683,0.497183328806563,0.02846160236960218,0.023897329683485433,0.05198538263777225,0.05390124632026639,0.020760703114348245,0.0564812793449983,0.06709688269565195
0.374,0.48888490587913164,0.0738138590336304,0.029389399362054803,0.3282032783145262,0.49438061177595793,0.028250191831711294,0.023739345207296498,0.052524434005925956,0.05424836022473668,0.020766467917047546,0.057347652500536556,0.06409624815509431
0.375,0.4921278618106002,0.0731845546481964,0.029325320343032837,0.3282522922859396,0.49151832306870585,0.028040077932972477,0.023579333667331084,0.05305611497125113,0.05461447574457858,0.020770879666767838,0.058299286804967425,0.06119593838701892
0.376,0.4952744704570084,0.07254413952292756,0.0292620135583186,0.328326025151334,0.4885969050036816,0.027831519124458137,0.023417504245354097,0.053579975070987954,0.05500015334537808,0.020774009496145617,0.059336681096694106,0.058394800224194354
0.377,0.4983228198745285,0.07189318595769179,0.029199390323449637,0.3284251141648531,0.4856168409633771,0.027624774095572766,0.02325406622198593,0.054095569667176296,0.05540593984590919,0.020775930642093984,0.060460261136268324,0.05569164347841629
0.378,0.5012710755512207,0.07123227117933083,0.02913736331507356,0.3285501323406302,0.4825786543007106,0.027420101451494355,0.023089228634841627,0.0546024607635275,0.05583236759101176,0.020776718281950143,0.06167037828646578,0.05308524211390995
0.379,0.5041174814685784,0.07056197642156119,0.029075846673387744,0.32870158674161565,0.47948290728829757,0.027217759394929483,0.022923199943292703,0.05510021782913527,0.05627995364145477,0.020776449366802584,0.0629673082671306,0.05057433544807802
0.38,0.5068603610449979,0.06988288600973074,0.029014756098515455,0.32887991691206736,0.47633020011324667,0.027018005412631572,0.022756187700089445,0.05558841862694728,0.05674919898078498,0.020775202452375924,0.06435124998734747,0.0481576293788647
0.381,0.5094981179721371,0.06919558645291674,0.028954008940616175,0.3290854934547889,0.4731211699195659,0.02682109596718046,0.022588398230090852,0.05606665004473583,0.05724058773906849,0.020773057527856645,0.06582232445736931,0.04583379763794126
0.382,0.5120292369542495,0.06850066554567714,0.028893524283565005,0.32931861675372887,0.4698564898994563,0.026627286194518904,0.022420036316309736,0.05653450892618211,0.057754586433382424,0.020770095843056273,0.06738057378257363,0.04360148306872493
0.383,0.5144522843597837,0.06779871148161831,0.028833223022124387,0.3295795158423975,0.46653686843410114,0.026436829607713958,0.0222513048935518,0.05699160289953676,0.05829164322478583,0.020766399734315037,0.06902596024158449,0.04145929892817882
0.384,0.5167659087940916,0.06709031198085295,0.028773027932598963,0.32986834741889687,0.46316304828411803,0.02624997780748362,0.022082404749854904,0.05743755120116041,0.05885218719148569,0.02076205244954385,0.07075836545057448,0.039405830211132205
0.385,0.518968841601952,0.06637605343321828,0.028712863737036975,0.330185195008919,0.45973580582967316,0.02606698019994747,0.021913534235994125,0.057871985491151696,0.059436627617763076,0.02075713797277991,0.07257758961559146,0.03743963499582858
0.386,0.5210598973085274,0.06565652005905855,0.028652657161117024,0.330530068278815,0.4562559503601356,0.025888083722061184,0.021744888983335497,0.05829455065816844,0.060045353298158875,0.020751740848600937,0.0744833508746031,0.03555924580921462
0.387,0.5230379740069421,0.06493229308916947,0.02859233698586018,0.3309029025012356,0.45272432341302915,0.02571353257509173,0.021576661630301353,0.058704905610465805,0.0606787318562631,0.020745946006729656,0.07647528473079775,0.03376317101044907
0.388,0.5249020536999104,0.0642039499653072,0.028531834093397563,0.3313035581758346,0.4491417981616981,0.02554356796645574,0.02140904155779094,0.05910272405019206,0.06133710907731665,0.020739838587123374,0.07855294357851574,0.032049896190938246
0.389,0.5266512026016964,0.06347206356255801,0.028471081507017836,0.33173182080733804,0.44550927885050384,0.025378427860157673,0.021242214633837835,0.059487695227930355,0.06202080825373959,0.0207335037658393,0.08071579632308827,0.03041788558916714
0.39,0.5282845714056802,0.0627372014346367,0.028410014425722246,0.33218740084304066,0.4418277002757194,0.025218346736037785,0.021076362967808036,0.059859524674508516,0.0627301295426043,0.02072702658198231,0.08296322809566599,0.02886558351844402
0.391,0.5298013955219547,0.06199992508313659,0.028348570253534,0.33266993377162474,0.43809802730947983,0.025063555358069294,0.020911664674395255,0.060217934907134035,0.06346534933407404,0.02072049176593595,0.08529454006393584,0.02739141580564076
0.392,0.5312009952889859,0.06126078925157047,0.02828668862376183,0.33317898038511723,0.4343212544635141,0.024914280551916006,0.020748293647628698,0.060562666106907984,0.0642267196298117,0.02071398356912524,0.08770894933939534,0.025993791238996963
0.393,0.5324827761630799,0.06052034124491728,0.02822431141847399,0.333714027205568,0.430498405489137,0.02477074499200302,0.020586419345169683,0.060893476764852926,0.06501446743043125,0.02070758559547639,0.09020558898167293,0.024671103022969456
0.394,0.533646228888985,0.059779120275249606,0.028161382783411338,0.3342744870777568,0.4266305330099561,0.024633166998289293,0.020426206583066125,0.061210144293562876,0.06582879413105962,0.020701380634710963,0.09278350810025393,0.023421730238127842
0.395,0.5346909296542827,0.05903765683399437,0.028097849138614465,0.3348596999288263,0.4227187181837132,0.024501760342899578,0.02026781534116725,0.061512465601742346,0.06666987492410696,0.020695450497625043,0.09544167205379472,0.022244039304080428
0.396,0.535616540229304,0.0582964720913077,0.02803365918502383,0.33546893369550146,0.41876407038923863,0.024376734066721237,0.020111400579330533,0.06180025762899783,0.06753785820841353,0.02068987585346058,0.0981789627470869,0.02113638544337817
0.397,0.536422808093286,0.05755607732308482,0.0279687639073265,0.33610138541958984,0.41476772693377134,0.02425829230601368,0.019957112064525412,0.062073357838409005,0.06843286500401356,0.020684736069502295,0.10099417902546813,0.02009711414441953
0.398,0.5371095665464146,0.056816973366156105,0.027903116573352208,0.3367561825126094,0.410730852774922,0.024146634129059368,0.01980509420890902,0.06233162466451647,0.06935498837190525,0.020680109053070692,0.10388603716641932,0.019124562621303617
0.399,0.5376767348062962,0.05607965010215005,0.027836672730272367,0.33743238419037935,0.406654640250536,0.02404195338289616,0.019655485918934776,0.06257493791455088,0.07030429283834608,0.020676071096075034,0.10685317146794755,0.01821706126867585
0.4,0.5381243180864942,0.055344585970469026,0.027769390197824158,0.3381289830782918,0.4025403088088593,0.023944438550130908,0.019508420455488496,0.0628031991210385,0.07128081382338261,0.020672696722348304,0.10989413493341398,0.01737293510957291
0.401,0.5384524076537824,0.05461224751071709,0.027701229058804133,0.33884490698762443,0.3983891047307774,0.023854272615832978,0.019364025305069296,0.06301633184424082,0.072284557073567,0.02067005853788843,0.11300740005242439,0.0165905052343337
0.402,0.5386611808598084,0.053883088934825796,0.027632151646962252,0.339579020862788,0.3942023008358099,0.023771632944469472,0.01922242206195174,0.06321428192324689,0.07331549809898878,0.02066822708420526,0.11619135967740242,0.015868090228680857
0.403,0.538750901141668,0.05315755172906977,0.02756212253251565,0.3403301288987887,0.3899811961638953,0.023696691166814617,0.01908372632129099,0.0633970176747773,0.07437358161495596,0.020667270694843438,0.11944432799534763,0.015204007589081843
0.404,0.5387219179846838,0.05243606428608537,0.027491108505469847,0.34109697682749535,0.38572711562570283,0.023629613076734286,0.018948047583104838,0.06356453003912732,0.07545872098881587,0.02066725535524491,0.1227645415942521,0.014596575123564251
0.405,0.5385746668396416,0.051719041566902185,0.02741907855692452,0.3418782543706937,0.38144140961522277,0.023570558537757084,0.01881548916707051,0.06371683267295636,0.07657079769255162,0.020668244566071536,0.126150160623502,0.014044112336203944
0.406,0.5383096689863373,0.05100688479297756,0.027346003858576565,0.3426725978571619,0.3771254535793465,0.02351968139926808,0.018686148138038455,0.06385396198908955,0.07770966076190317,0.02067029921014486,0.1295992700475484,0.013544941793558564
0.407,0.5379275313357722,0.050299981168103754,0.027271857740540764,0.34347859300021866,0.3727806475401638,0.02347712942222747,0.018560115242195693,0.06397597714390306,0.07887512626299657,0.02067347742318028,0.13310988099194807,0.013097390471357473
0.408,0.5374289461644457,0.049598703629997194,0.02719661566759243,0.3442947778312402,0.36840841556652293,0.023443044214242252,0.018437474853730727,0.06408295997333537,0.08006697676776073,0.02067783446849532,0.13667993218076935,0.012699791079809257
0.409,0.5368146907755726,0.048903410631347864,0.02712025521387038,0.34511964578359106,0.36401020519230043,0.02341756117385092,0.01831830493188107,0.0641750148789945,0.08128496083976233,0.020683422615843976,0.1403072914641369,0.012350483365897294
0.41,0.5360856270829262,0.04821444594998119,0.027042756035993955,0.34595164892027436,0.3595874867796356,0.023400809443951072,0.01820267698823117,0.0642522686660025,0.08252879253237407,0.02069029102453043,0.14398975743453646,0.012047815391121028
0.411,0.5352427011133801,0.04753213852778228,0.02696409984454259,0.3467892012974774,0.35514175282598226,0.023392911874256298,0.01809065606412077,0.0643148703342807,0.08379815090148603,0.020698485630921134,0.14772506113043068,0.01179014478319878
0.412,0.5342869424241989,0.04685680233795421,0.026884270373834427,0.347630682454936,0.35067451721392356,0.023393984992779684,0.017982300717986455,0.06436299082494101,0.0850926795351852,0.020708049040467552,0.15151086782565965,0.01157583996025984
0.413,0.5332194634310496,0.04618873628011489,0.02680325334997495,0.34847444102283376,0.3461873144023088,0.023404138986291116,0.017877663022504306,0.06439682272340111,0.08641198610319055,0.020719020424342635,0.15534477890328993,0.011403281326201534
0.414,0.5320414586427141,0.04552822410268254,0.026721036457257607,0.349318798433747,0.3416816985568135,0.023423477689717902,0.017776788571328854,0.0644165799207403,0.08775564192909911,0.020731435420851017,0.15922433381266196,0.011270862435906904
0.415,0.5307542037987422,0.044875534351985616,0.026637609303045793,0.35016205272702444,0.3371592426175889,0.023452098584443856,0.01767971649527226,0.06442249723476887,0.08912318158873524,0.020745326041775394,0.16314701210866567,0.011176991129166515
0.416,0.5293590549066768,0.044230920347526105,0.026552963381355817,0.3510024824320323,0.3326215373016965,0.023490092805477758,0.01758647948770311,0.0644148299922126,0.09051410253806465,0.020760720583836274,0.16711023557239196,0.011120090632154621
0.417,0.5278574471762392,0.04359462018291394,0.02646709203536263,0.35183835051581197,0.32807019003827886,0.0235375451574581,0.01749710383897979,0.0643938535734932,0.09192786477438238,0.020777643545442114,0.17111137041247654,0.011098600625394476
0.418,0.5262508938490565,0.04296685675192263,0.02637999041903472,0.3526679083798073,0.3235068238352892,0.02359453413943203,0.01741160947972411,0.064359862921665,0.0933638905345869,0.020796115548859427,0.1751477295463593,0.011110978277123748
0.419,0.5245409849242233,0.042347837799144125,0.026291655458118655,0.35348939988968914,0.3189330760778664,0.023661131978370206,0.017330010032760766,0.06431317201723834,0.09482156403443602,0.02081615326788873,0.1792165749605657,0.01115569924103847
0.42,0.5227293857820694,0.041737755994637575,0.026202085810618902,0.3543010654217384,0.3143505972602421,0.023737404671310438,0.017252312873536315,0.06425411332072622,0.09630023125263863,0.020837769361140148,0.18331512014877174,0.011231258617388577
0.421,0.5208178357106369,0.04113678903193236,0.026111281826885,0.35510114590921343,0.3097610496549122,0.023823412036011245,0.017178519198856324,0.06418303718480728,0.09779919976367304,0.02086097241092462,0.18744053262616578,0.011336171876488067
0.422,0.5188081463408866,0.04054509974874839,0.026019245509396167,0.35588788687216555,0.3051661059244081,0.023919207769956635,0.017108624103784893,0.06410031123801573,0.09931773862311975,0.020885766867790978,0.19158993651828202,0.011468975743729142
0.423,0.5167021999972427,0.03996283626974634,0.025925980472321194,0.35665954241480574,0.300567447682119,0.02402483951753648,0.017042616666539886,0.06400631974189726,0.10085507830920899,0.02091215300071165,0.19576041522210386,0.011628229045317963
0.424,0.5145019479697039,0.03939013217057976,0.025831491900966015,0.3574143791756864,0.29596676400928795,0.024140348945256945,0.016980480041251824,0.06390146292356583,0.10241041072405652,0.020940126852871988,0.19994901413676758,0.011812513513957547
0.425,0.512209408712866,0.03882710666246513,0.02573578651123582,0.35815068021764757,0.29136574993572434,0.024265771824866115,0.016922191558455486,0.06378615628553642,0.10398288925786496,0.02096968020303419,0.20415274346085407,0.012020434553859264
0.426,0.509826665976269,0.0382738647964283,0.0256388725092161,0.3588667488462436,0.28676610489206855,0.024401138124302255,0.0168677228331465,0.0636608298946527,0.10557162891915049,0.021000800532450667,0.20836858105293707,0.012250621964443325
0.427,0.5073558668696249,0.03773049768630575,0.02554075955101141,0.35956091234699583,0.2821695311413985,0.024546472106423717,0.016817039880252134,0.0635259276518194,0.10717570653396435,0.021033470997267385,0.21259347535188314,0.012501730622182388
0.428,0.5047992198659558,0.03719708274955879,0.025441458702993837,0.36023152563277167,0.27757773219781035,0.02470179243551921,0.01677010323732871,0.06338190654408847,0.10879416101688875,0.021067670406458214,0.21682434835327233,0.0127724411200874
0.429,0.5021589927451471,0.03667368396488134,0.02534098240260787,0.3608769747930598,0.2729924112392514,0.024867112291575965,0.01672686809424905,0.06322923588055035,0.1104259937164792,0.021103373205233342,0.22105809863812612,0.013061460364370486
0.43,0.4994375104799385,0.036160352145653996,0.025239344419951043,0.36149568053684716,0.2684152695216021,0.025042439492324247,0.016687284429665807,0.06306839651330795,0.112070168837605,0.02114054946400249,0.22529160445023735,0.01336752212796106
0.431,0.49663715306572226,0.035657125228239786,0.025136559820291633,0.362086101520819,0.2638480048005793,0.025227776623021263,0.016651297153936193,0.06289988004470996,0.11372561394286478,0.021179164872935134,0.22952172681872757,0.0136893875606188
0.432,0.4937603532950207,0.03516402857417009,0.02503264492769912,0.3626467375545939,0.2592923097675639,0.025423121173929523,0.0166188462582279,0.06272418802195343,0.11539122053497852,0.021219180742265805,0.23374531272316648,0.014025845655617021
0.433,0.49080959447704464,0.03468107528523614,0.024927617289910386,0.3631761326748687,0.2547498705048222,0.025628465685366718,0.01658986696944013,0.06254183112020409,0.11706584472177528,0.021260554008500382,0.23795919829932502,0.014375713673077072
0.434,0.4877874081024621,0.03420826653052264,0.024821495644549243,0.36367287808045023,0.2502223649649162,0.025843797900224032,0.01656428991062516,0.06235332831540031,0.11874830796512063,0.021303237246664847,0.24216021208428287,0.014737837520195637
0.435,0.48469637145317707,0.033745591884338094,0.024714299886789137,0.36413561492018115,0.24571146147826767,0.02606910092377716,0.01654204126653649,0.06215920604797473,0.1204373979148439,0.021347178688752338,0.24634517830021635,0.015111092088720433
0.436,0.481539105156455,0.0332930296740308,0.02460605103854501,0.3645630369257274,0.24121881729208897,0.02630435339059174,0.016523042954011424,0.061959997378695286,0.12213186932840356,0.021392322248410964,0.25051092017668686,0.015494381550081348
0.437,0.47831827068225224,0.032850547336596266,0.02449677121925898,0.3649538928811071,0.23674607714309429,0.026549529638316995,0.016507212796874924,0.06175624113774203,0.1238304450766403,0.021438607551979263,0.2546542633117298,0.01588663960874006
0.438,0.4750365677818096,0.0324181017830266,0.024386483618306358,0.365306988921029,0.23229487186570183,0.026804599888128517,0.016494464705140016,0.06154848106802846,0.12553181723554452,0.021485969975845606,0.25877203907222207,0.016286829714397794
0.439,0.47169673186486966,0.031995639769386956,0.024275212469049692,0.3656211906512795,0.22786681703682327,0.027069530431594015,0.016484708858307842,0.06133726496368434,0.12723464826358274,0.02153434069015272,0.26286108803389974,0.01669394523384489
0.44,0.46830153131198354,0.031583098273674,0.024162983024580538,0.36589542508663486,0.2234635116577157,0.02734428382372029,0.01647785189261012,0.06112314380445215,0.1289375722636731,0.021583646708823394,0.26691826346098957,0.01710700958331659
0.441,0.46485376471767753,0.031180404877567066,0.02404982153515155,0.3661286824049619,0.21908653687281712,0.02762881908196332,0.0164737970920089,0.0609066708867252,0.1306391963286069,0.02163381094587059,0.2709404348249002,0.01752507632225368
0.442,0.4613562580598452,0.030787478152290788,0.02393575522734255,0.36632001751950427,0.21473745472493064,0.027923091890945117,0.016472444582792494,0.06068840095179995,0.13233810196833945,0.021684752277929608,0.27492449136072494,0.01794722920942486
0.443,0.4578118617910047,0.030404228047876954,0.02382081228494469,0.36646855147398044,0.21041780694578172,0.0282270548126222,0.016473691531593036,0.060468889311866815,0.13403284661730147,0.02173638561292129,0.27886734565969507,0.01837258222242323
0.444,0.45422344784815416,0.03003055628528899,0.023705021831577248,0.3665734726667211,0.2061291137805129,0.028540657501571382,0.01647743234667107,0.06024869097421709,0.1357219652196376,0.021788621964721932,0.28276593729505417,0.018800279541620543
0.445,0.4505939065798218,0.02966635675095967,0.02358841391498288,0.3666340379106049,0.20187287284433625,0.028863846925075667,0.01648355888223194,0.06002835976413589,0.13740397189010267,0.021841368533652282,0.28661723647809195,0.01922949549966301
0.446,0.4469261435913628,0.029311515893358897,0.023471019492990748,0.3666495733356736,0.19765055800907289,0.029196567587615064,0.01649196064562459,0.05980844744709349,0.1390773616482368,0.021894528792601897,0.2904182477403796,0.019659434497650542
0.447,0.4432230765118903,0.028965913121212092,0.02335287042108276,0.3666194751411006,0.19346361831704192,0.02953876175939631,0.016502525007144008,0.05958950285092739,0.14074061222343937,0.02194800257856551,0.2941660136374734,0.020089330889137256
0.448,0.43948763168819477,0.028629421202970247,0.023233999441533874,0.36654321020300556,0.18931347691951542,0.02989036970862005,0.01651513741227066,0.05937207098892569,0.14239218592849273,0.022001686189336348,0.29785761846850045,0.02051844883307407
0.449,0.43572274081250073,0.028301906667046434,0.023114440174061654,0.36642031654435464,0.18520153003695905,0.030251329937169735,0.016529681596099872,0.059156692184768635,0.14403053159898066,0.022055472485144927,0.3014901920052695,0.02094608211684845
0.45,0.4319313374922867,0.027983230202310062,0.02299422710792039,0.3662504036729134,0.1811291459382578,0.030621579419469715,0.016546039799781396,0.058943901200388386,0.14565408659590628,0.022109250995018655,0.3050609132236951,0.02137155395050762
0.451,0.42811635377165463,0.02767324705831288,0.022873395595400067,0.36603315279285026,0.17709766393646298,0.031001053844269415,0.016564092988776168,0.05873422636781463,0.14726127886856522,0.02216290802766532,0.30856701402959236,0.021794216733313783
0.452,0.42428071661484684,0.027371807444670385,0.022751981846613895,0.36576831689495565,0.17310839339901227,0.03138968785910113,0.016583721072762476,0.0585281887260187,0.1488505290746775,0.02221632678677475,0.31200578297030296,0.02221345179374814
0.453,0.4204273443631418,0.027078756929017313,0.02263002292550178,0.36545572072975335,0.16916261277085165,0.031787415317219785,0.0166048031270712,0.058326301163858126,0.1504202527546927,0.022269387490597207,0.3153745689231826,0.022628669104117354
0.454,0.41655914317653425,0.026793936832898654,0.02250755674690821,0.36509526066690345,0.1652615686091105,0.0321941695267776,0.016627217615475753,0.058129067570191054,0.15196886255718844,0.022321967495794556,0.31867078475167643,0.023039306970929607
0.455,0.41267900347120584,0.02651718462494749,0.02238462207459455,0.36468690444350177,0.16140647462815955,0.032609883501977154,0.01665084261418596,0.05793698199233528,0.1534947705122623,0.02237394142552723,0.32189191091947894,0.023444831702217662
0.456,0.4087897963628755,0.026248334310616014,0.022261258520050918,0.36423069080314974,0.15759851075422668,0.033034490215926755,0.016675556036849053,0.05775052780412091,0.15499639034974605,0.02242518130187608,0.3250354990529416,0.023844737253028887
0.457,0.4048943701252404,0.02598721681773287,0.022137506541901456,0.3637267290269873,0.15383882218947412,0.03346792285485567,0.01670123586035021,0.057570176884946804,0.1564721398590457,0.022475556682719378,0.32809917544162515,0.02423854485031527
0.458,0.4009955466717404,0.025733660377109786,0.02201340744573251,0.3631751983572519,0.15012851848638042,0.03391011507339993,0.01672776035120652,0.057396388811338094,0.1579204432872143,0.02252493480318792,0.3310806444666331,0.024625802598477596
0.459,0.3970961180683225,0.025487490897409686,0.021889003384076778,0.362576347313377,0.14646867263424546,0.03436100125060971,0.01675500829231778,0.05722961006270588,0.15933973377155342,0.02257318072184884,0.3339776919462066,0.025006085066823364
0.46,0.39319884308444214,0.025248532333570665,0.02176433735631419,0.36193049290009405,0.14286032016043407,0.03482051674639023,0.016782859209834914,0.057070273243005946,0.16072845580268844,0.02262015747168427,0.3367881883881452,0.025378992860201843
0.461,0.3893064437891237,0.025016607048102442,0.021639453208230495,0.3612380197068943,0.1393044582494973,0.0352885981580734,0.016811193599868463,0.05691879632005544,0.1620850677136676,0.022665726215917663,0.33951009213886985,0.025744152174040125
0.462,0.3854216021985548,0.02479153616478358,0.021514395630994314,0.36049937889853434,0.13580204488363906,0.03576518357684027,0.016839893154757004,0.05677558188422063,0.1634080441903406,0.022709746408691753,0.3421414524191293,0.02610121433501452
0.463,0.3815469569813465,0.02457313991435893,0.02138921015936901,0.35971508709702693,0.13235399800833814,0.03625021284365964,0.016868840988575624,0.05664101642812091,0.16469587879796907,0.02275207596057311,0.3446804122365282,0.026449855328511126
0.464,0.37768510022769625,0.024361237972065547,0.02126394316899147,0.3588857251564758,0.1289611947273105,0.03674362780443376,0.016897921861565943,0.0565154696489046,0.16594708651862802,0.022792571408859364,0.3471252111650306,0.02678977531401341
0.465,0.3738385742892717,0.02415564978681791,0.02113864187255662,0.35801193683261673,0.1256244705312965,0.03724537256406691,0.016927022403173207,0.056399293774489774,0.16716020629367068,0.0228310880926496,0.3494741879817185,0.027120698129451688
0.466,0.3700098686974443,0.02395619490203387,0.021013354314746373,0.35709442734906344,0.12234461856521245,0.03775539373920048,0.016956031333350656,0.05629282291503844,0.1683338035651714,0.02286748033264871,0.3517257831514064,0.0274423707854779
0.467,0.36620141716816834,0.023762693268092223,0.020888129365714072,0.3561339618617616,0.11912238893807973,0.0382736407094559,0.01698483968180227,0.05619637244082493,0.16946647281000207,0.022901601615663566,0.3538785411504871,0.027754562950576343
0.468,0.36241559470185336,0.02357496554641908,0.020763016712944667,0.3551313638224766,0.1159584880798941,0.038800065867143234,0.017013341004828028,0.056110238387452216,0.17055684005992966,0.022933304783681142,0.35593111262292704,0.028057066427858813
0.469,0.358654714786219,0.0233928334052098,0.02063806685126991,0.3540875132414095,0.11285357814930552,0.039334624865459134,0.017041431599454628,0.0560346968893022,0.1716035654008403,0.02296244222744281,0.35788225636329285,0.028349694624347627
0.47,0.35492102670946746,0.023216119806749397,0.020513331070932856,0.3530033448484799,0.10980827649569455,0.039877276865261414,0.01706901071452115,0.05597000364192507,0.17260534544395312,0.022988866084358843,0.3597308411239326,0.028632282013530352
0.471,0.35121671299047874,0.02304464928624817,0.02038886144355759,0.35187984615256374,0.10682315517891719,0.04042798478058017,0.01709598075843167,0.05591639339395776,0.17356091576163174,0.023012428440608426,0.3614758472452674,0.028904683591911767
0.472,0.3475438869319478,0.022878248222081572,0.020264710805956813,0.3507180553983416,0.10389874054962883,0.040986715522997604,0.017122247503282607,0.05587407946900591,0.17446905328021053,0.02303298153728252,0.36311636810935993,0.029166774330247596
0.473,0.34390459030178294,0.022716745097294166,0.02014093274171777,0.349519059421316,0.10103551289282343,0.0415534402451146,0.017147720285055713,0.05584325331783978,0.17532857862215115,0.02305037798041093,0.36465161141761143,0.02941844862013414
0.474,0.34030079114749934,0.02255997075221049,0.02001758156050048,0.3482839914027223,0.0982339061368233,0.04212813458333404,0.017172312199597674,0.0558240841010745,0.17613835838977082,0.023064470954744103,0.36608090029348994,0.029659619716593384
0.475,0.3367343817480242,0.022407758627925396,0.01989471227502445,0.34701402852727137,0.09549430762965909,0.042710778900263445,0.017195940294054718,0.05581671830251447,0.17689730738272844,0.023075114441083452,0.3674036742109404,0.02989021917729198
0.476,0.33320717670687217,0.02225994500049424,0.019772380575713504,0.34571038954744093,0.09281705798437485,0.04330135852704369,0.01721852575347011,0.055821279373303216,0.1776043907415042,0.023082163437004248,0.36861948974846853,0.030110196298976842
0.477,0.32972091119021135,0.022116369205598146,0.019650642802984147,0.344374332258853,0.09020245099446181,0.043899864005957856,0.017239994082207524,0.05583786740719339,0.17825862600906073,0.023085474180697563,0.369728021168117,0.030319517551756613
0.478,0.32627723931258273,0.021976873853475614,0.019529555917169587,0.34300715089207207,0.0876507336202299,0.04450629133361889,0.017260275279920075,0.05586655884742709,0.17885908510282877,0.023084904377751445,0.37072906081764945,0.030518166011807665
0.479,0.3228777326722965,0.021841305033967105,0.01940917746607143,0.3416101734272141,0.08516210604663633,0.04512064220502702,0.01727930401176512,0.055907406225960084,0.1794048961891958,0.023080313430583276,0.37162251935330937,0.030706140793161644
0.48,0.3195238790378597,0.021709512511475716,0.019289565550127216,0.3401847588384922,0.08273672181275497,0.04574292425864998,0.017297019772597684,0.055960437935939245,0.1798952454529053,0.02307156267032107,0.3724084257794561,0.030883456479232633
0.481,0.3162170811862908,0.021581349909711743,0.019170778785253195,0.33873229427619483,0.08037468801280188,0.04637315132264385,0.01731336704484929,0.05602565803847444,0.18032937875411476,0.02305851559095664,0.3730869273005257,0.031050142554760605
0.482,0.3129586558937207,0.021456674886078483,0.019052876263424546,0.3372541921935099,0.07807606556834569,0.04701134366218801,0.01732829544979734,0.05610304610476243,0.18070660316628748,0.023041038085629195,0.37365828898020226,0.03120624283883734
0.483,0.3097498330780515,0.02133534929551942,0.018935917511105266,0.3357518874252994,0.07584086957114779,0.04765752822789059,0.01734175989191587,0.056192557094613294,0.1810262883884678,0.023018998684997096,0.3741228932025877,0.03135181491967677
