time,LGLTMED,LRF,LADDLONG,LBF,LTA,LGM
15.78,0.0014852357539788248,0.056628200020051825,0.0005974736364811199,0.00072214240072332,0.6060538081407915,0.001285559149076481
15.79,0.001029094298747638,0.05376969078023023,0.0008951123418855958,7.953603453561694e-05,0.6422041587326918,0.0013491928234194166
15.8,0.0005732166708556407,0.05093778956240924,0.0011921469755335526,0.0005572697081277207,0.6783652950425244,0.0014129014777580948
15.81,0.00011788483096646794,0.04813412811584072,0.0014883923313466871,0.0011878691938553493,0.7145130850456959,0.0014766439714948491
15.82,0.00033661831779726063,0.045360300174663866,0.0017836642787606109,0.0018118652085750686,0.7506234367117695,0.0015403792415519882
15.829999999999998,0.0007900092412130563,0.04261785925676302,0.0020777800484940608,0.0024288696076179136,0.7866723405071472,0.0016040663780986296
15.839999999999998,0.0012420040864766673,0.039908316550386645,0.0023705585154394078,0.003038503949366439,0.8226359118851516,0.0016676647001645345
15.849999999999998,0.0016923189954742425,0.037233138893357824,0.0026618204778237234,0.0036404001106509955,0.8584904336181942,0.00173113383086319
15.859999999999998,0.0021406704184173,0.034593746849182504,0.002951388931862497,0.0042342008821042955,0.8942123978286624,0.0017944337719511883
15.869999999999996,0.0025867754274589943,0.03199151288390407,0.0032390893412023946,0.0048195605417429,0.9297785475799955,0.0018575249774591364
15.879999999999995,0.0030303520299169305,0.029427759647171294,0.003524749900523745,0.005396145405122796,0.9651659178984157,0.0019203684261438942
15.889999999999995,0.0034711194807330887,0.026903758360622157,0.0038082017927358516,0.005963634350499031,1.000351876107768,0.001982925692532541
15.899999999999997,0.00390879859380775,0.02442072731628942,0.004089279439238211,0.006521719317486617,1.0353141613722814,0.002045159016351497
15.909999999999997,0.004343112051854421,0.021979830487316197,0.0043678207427436935,0.007070105777776193,1.0700309233525274,0.002107031370155624
15.919999999999996,0.0047737847144371775,0.019582176252872507,0.004643667322180379,0.007608513176522953,1.1044807598877258,0.0021685065249894223
15.929999999999996,0.005200543923867482,0.017228816238810053,0.004916664739215284,0.008136675343105308,1.138642753623477,0.0022295491139252012
15.939999999999996,0.005623119808651974,0.014920744275249306,0.005186662715975577,0.00865434087002736,1.1724965075088256,0.002290124693331423
15.949999999999996,0.0060412455841983344,0.0126588954718844,0.005453515343580519,0.009161273458810988,1.2060221790900123,0.0023501998017283862
15.959999999999996,0.0064546578505052955,0.010444145411267798,0.005717081281136677,0.009657252231799892,1.239200513529729,0.002409742016089144
15.969999999999995,0.006863096886581841,0.008277309459752247,0.005977223944881553,0.010142072008898759,1.2720128752803375,0.0024687200054439497
15.979999999999997,0.00726630694135298,0.006159142195255543,0.006233811687181396,0.01061554354842553,1.3044412783380865,0.0025271035816496114
15.989999999999997,0.007664036520812972,0.004090336950668674,0.006486717965106092,0.011077493751488284,1.3364684150031425,0.0025848637471906134
15.999999999999996,0.008056038671184882,0.0020715254715294373,0.00673582149833322,0.011527765829589434,1.3680776830672061,0.0026419727398837565
16.009999999999994,0.00844207125784174,0.00010327768644149725,0.006981006416180752,0.011966219435440687,1.3992532113471625,0.0026984040743607304
16.019999999999996,0.00882189723974034,0.001813898411440692,0.007222162393619587,0.012392730757194735,1.4299798834813915,0.0027541325802055835
16.029999999999994,0.0091952849391113,0.003679556773738424,0.0074591847761539334,0.012807192576478771,1.4602433599075755,0.002809134436630914
16.039999999999992,0.009562008306135633,0.005493313199079692,0.007691974693473966,0.01320951429078708,1.4900300979484296,0.00286338720359038
16.049999999999994,0.009921847178319499,0.007254845130525174,0.007920439161787824,0.01359962190095608,1.5193273699431475,0.0029168698492442672
16.059999999999995,0.010274587534259381,0.008963891350639566,0.008144491174735282,0.013977457964576206,1.5481232793741986,0.002969562773714876
16.069999999999993,0.01062002174147261,0.010620251576793895,0.008364049782778077,0.014342981516280443,1.5764067749492674,0.0030214478290859787
16.07999999999999,0.010957948797952187,0.01222378595941975,0.008579040160957776,0.014696167955914849,1.604167662606933,0.003072508335615172
16.089999999999993,0.011288174567086988,0.013774414486069048,0.008789393664916417,0.015037008905671778,1.63139661542331,0.003122729094140903
16.099999999999994,0.011610512005566528,0.015272116294236632,0.008995047875091538,0.015365512037351451,1.6580851814056554,0.0031720963946783682
16.109999999999992,0.011924781383864505,0.01671692889596198,0.009195946629028555,0.015681700870987664,1.68422578916709,0.003220598021210294
16.11999999999999,0.012230810498870221,0.01810894731725873,0.009392040041796307,0.01598561454611181,1.709811751482997,0.00326822325268963
16.129999999999992,0.01252843487821677,0.01944832315546902,0.009583284514533521,0.01627730756694076,1.7348372667343341,0.00331496286028257
16.139999999999993,0.012817497975844151,0.020735263557738238,0.009769642731182358,0.016556849522774485,1.7592974182475953,0.0033608091008941673
16.14999999999999,0.013097851358336186,0.021970030123946233,0.00995108364348136,0.016824324784890654,1.7831881715474356,0.0034057557070362315
16.15999999999999,0.01336935488158089,0.02315293773756924,0.010127582444305885,0.01707983218122947,1.806506369546217,0.0034497978731158293
16.16999999999999,0.01363187685731791,0.02428435332804431,0.01029912052947362,0.017323484650170643,1.8292497257030063,0.003492932238238231
16.179999999999993,0.013885294209143377,0.025364694568260272,0.010465685448185052,0.017555408874710687,1.851416815190677,0.003535156865627719
16.18999999999999,0.014129492617537808,0.02639442851082379,0.010627270842340011,0.01777574489834594,1.8730070641134513,0.0035764712187743423
16.19999999999999,0.0143643666534742,0.027374070166762934,0.010783876375043017,0.017984645723950216,1.8940207368201258,0.0036168761344178703
16.20999999999999,0.014589819900166296,0.028304181030340776,0.010935507648661455,0.01818227689690794,1.9144589213619028,0.0036563737924840385
16.21999999999999,0.01480576506254026,0.02918536755365149,0.011082176112822936,0.018368816073733113,1.9343235131481098,0.003694967683091931
16.22999999999999,0.015012124064054331,0.030018279574650007,0.01122389896273846,0.018544452577374207,1.9536171968567495,0.0037326625707529443
16.239999999999988,0.015208828130537878,0.03080360870221909,0.011360699028231185,0.01870938694036976,1.9723434266592232,0.003769464455881218
16.24999999999999,0.015395817860762447,0.031542086661813726,0.011492604653851077,0.018863830436972907,1.99050640482132,0.003805380533735961
16.25999999999999,0.01557304328349592,0.03223448360515549,0.011619649570468342,0.019008004605310155,2.008111058747631,0.003840419150920997
16.26999999999999,0.015740463900845072,0.03288160638738773,0.011741872758754863,0.019142140760591012,2.0251630165435124,0.003874589759575022
16.279999999999987,0.01589804871777441,0.03348429681504791,0.01185931830497007,0.019266479500351028,2.0416685811750024,0.003907902869393432
16.28999999999999,0.016045776257785725,0.03404342986816783,0.01197203524946276,0.019381270202693642,2.0576347033112423,0.003940369997627257
16.29999999999999,0.016183634564820682,0.0345599118997779,0.012080077428292754,0.019486770518491438,2.0730689529360666,0.003972003617208004
16.309999999999988,0.016311621191491554,0.03503467881606888,0.012183503308374989,0.019583245858504645,2.0879794898163224,0.004002817103150155
16.319999999999986,0.016429743173763587,0.035468694240446755,0.012282375816554437,0.019670968876363146,2.102375032914773,0.004032824677385641
16.329999999999988,0.016538016992220954,0.035862947664691586,0.012376762163028052,0.019750218948330088,2.116264828835796,0.00406204135218644
16.33999999999999,0.016636468520050112,0.03621845259038394,0.012466733659534723,0.019821281650721334,2.1296586193928007,0.00409048287233254
16.349999999999987,0.016725132957877857,0.03653624466368875,0.01255236553273505,0.01988444823580205,2.1425666083874595,0.004118165656183877
16.359999999999985,0.016804054755626543,0.03681737980649765,0.012633736733204236,0.01994001510692593,2.1549994276931015,0.004145106735818341
16.369999999999987,0.016873287521606224,0.037062932346851936,0.012710929740467693,0.01998828329362983,2.166968102738742,0.004171323696404902
16.37999999999999,0.016932893919134048,0.037273993151517616,0.012784030364517323,0.020029557927351452,2.178484017495922,0.004196834614990376
16.389999999999986,0.0169829455510324,0.0374516677635565,0.012853127544250482,0.020064147718401426,2.1895588790758738,0.004221657998885888
16.399999999999984,0.017023522832410286,0.03759707454770786,0.012918313143272379,0.020092364434793914,2.200204682047304,0.00424581272384093
16.409999999999986,0.017054714852187285,0.03771134284634328,0.012979681743499854,0.020114522383523334,2.2104336725846476,0.004269317972189574
16.419999999999987,0.017076619223865015,0.03779561114868424,0.013037330437005619,0.020130937894872216,2.220258312554171,0.0042921931711481535
16.429999999999986,0.01708934192606946,0.0378510252758954,0.013091358616551264,0.02014192881033987,2.229691243642078,0.004314457931438774
16.439999999999984,0.01709299713337851,0.03787873658460182,0.013141867765274904,0.020147813974778297,2.2387452516255952,0.004336131986408536
16.449999999999985,0.017087707037927922,0.03787990019133466,0.01318896124601751,0.020148912733299374,2.2474332308847815,0.004357235131809742
16.459999999999987,0.017073601662268945,0.03785567322038782,0.013232744090779094,0.020145544433476575,2.2557681492489157,0.004377787166400689
16.469999999999985,0.017050818663933275,0.03780721307755533,0.013273322790786853,0.020138027933316267,2.263763013266214,0.004397807833518391
16.479999999999983,0.017019503132140856,0.03773567575219286,0.013310805087634704,0.020126681115429017,2.2714308339797005,0.004417316763763826
16.489999999999984,0.016979807377059737,0.03764221414998829,0.013345299765922443,0.020111820407794176,2.278784593285907,0.004436333418928314
16.499999999999986,0.01693189071199927,0.03752797645873673,0.013376916447788215,0.02009376031148305,2.2858372109468483,0.0044548770372776336
16.509999999999984,0.016875919228894577,0.037394104549315424,0.01340576538969591,0.02007281293569309,2.2926015123190786,0.004472966580298919
16.519999999999982,0.016812065567427373,0.03724173241395676,0.01343195728181151,0.020049287540448255,2.2990901968565707,0.004490620681003763
16.529999999999983,0.01674050867812874,0.03707198464382045,0.013455603050276757,0.020023490087328545,2.3053158074369824,0.004507857593869347
16.539999999999985,0.01666143357981933,0.03688597494776388,0.013476813662662861,0.01999572279859352,2.3112907005538417,0.004524695146487837
16.549999999999983,0.016575031111749332,0.036684804714101724,0.01349569993686318,0.019966283725060676,2.317027017410063,0.004541150692982246
16.55999999999998,0.01648149768079222,0.03646956161703732,0.01351237235366218,0.01993546632309523,2.3225366559409015,0.004557241069233705
16.569999999999983,0.016381035004020623,0.03624131826934026,0.013526940873196206,0.019903559041062,2.327831243787051,0.004572982549950979
16.579999999999984,0.016273849846954277,0.03600113092273545,0.013539514755499778,0.019870844915577696,2.3329221122320165,0.004588390807600105
16.589999999999982,0.01616015375772877,0.035750038217359226,0.013550202385314755,0.019837601177880377,2.3378202711134977,0.004603480873203227
16.59999999999998,0.016040162797398762,0.03548905998153273,0.013559111101334185,0.01980409887060118,2.3425363847180347,0.004618267099013654
16.60999999999998,0.015914097266568224,0.0352191960830129,0.01356634703005772,0.01977060247518744,2.347080748672017,0.004632763123079668
16.619999999999983,0.015782181428534436,0.03494142533280713,0.013572014924444313,0.019737369550201406,2.3514632678490908,0.0046469818357209305
16.62999999999998,0.015644643229137847,0.034656704442566,0.013576218007549982,0.01970465038072193,2.3556934353219483,0.0046609353479556866
16.63999999999998,0.015501714013520308,0.03436596703648641,0.01357905782132826,0.019672687639108243,2.359780312393923,0.004674634961930962
16.64999999999998,0.01535362824000523,0.034070122718565236,0.013580634080757287,0.019641716057429908,2.3637325097519053,0.00468809114341925
16.659999999999982,0.015200623191322581,0.03377005619595192,0.013581044533458046,0.019611962111909482,2.3675581697865526,0.004701313496453161
16.66999999999998,0.015042938683407607,0.033466626459062766,0.0135803848249893,0.019583643719757328,2.3712649501290244,0.004714310740175141
16.67999999999998,0.01488081677200654,0.03316066601904201,0.013578748370031713,0.01955696994880115,2.374860008456171,0.004727090687983582
16.68999999999998,0.014714501457328272,0.03285298020307808,0.013576226229684284,0.019532140740326054,2.378349988618354,0.0047396602290596885
16.69999999999998,0.014544238386987688,0.03254434650800223,0.013572906995084642,0.019509346645541343,2.3817410081450414,0.0047520253123605515
16.70999999999998,0.01437027455749164,0.03223551401250946,0.01356887667754231,0.019488768576073495,2.38503864718206,0.004764190933162407
16.719999999999978,0.01419285801452453,0.03192720284824958,0.013564218605354457,0.01947057756885487,2.388247938910962,0.004776161122234078
16.72999999999998,0.014012237552305712,0.03162010372994206,0.013559013327461305,0.019454934565747185,2.39137336149611,0.0047879389377148565
16.73999999999998,0.013828662412320409,0.03131487754457213,0.013553338524092004,0.019441990208217103,2.3944188315992587,0.004799526459763425
16.74999999999998,0.013642381981767378,0.031012154999629945,0.013547268924552183,0.019431884647364363,2.397387699494624,0.004810924788034177
16.759999999999977,0.013453645492116317,0.030712536330259783,0.013540876232310727,0.019424747369581892,2.400282745810027,0.00482213404202514
16.76999999999998,0.013262701718222828,0.030416591065094575,0.013534229057548416,0.01942069703810018,2.4031061799121782,0.004833153364328696
16.77999999999998,0.013069798678500855,0.030124857850464124,0.013527392857325677,0.019419841350644937,2.405859639946847,0.004843980926802942
16.789999999999978,0.012875183336691551,0.029837844332582953,0.013520429883510767,0.019422276913433813,2.4085441945376087,0.004854613939668507
16.799999999999976,0.012679101305788316,0.029556027097242716,0.013513399138589557,0.019428089131769882,2.4111603461401887,0.004865048663523686
16.809999999999977,0.01248179655467973,0.029279851666448583,0.013506356339457237,0.019437352117554266,2.4137080360428844,0.004875280424259926
16.81999999999998,0.01228351111805717,0.02900973255134594,0.01349935388926892,0.019450128614112532,2.4161866509968593,0.004885303630849423
16.829999999999977,0.012084484810107108,0.02874605336068534,0.013492440857400478,0.019466469938779506,2.418595031453549,0.004895111795967028
16.839999999999975,0.011884954942478208,0.028489166963974202,0.013485662967547331,0.019486415943705628,2.4209314813806153,0.0049046975593998975
16.849999999999977,0.011685156046986472,0.028239395708365936,0.013479062593969643,0.01950999499534856,2.4231937796232756,0.004914052714189643
16.859999999999978,0.01148531960350003,0.027997031688239596,0.0134726787658725,0.019537223973110987,2.4253791927745385,0.004923168235442708
16.869999999999976,0.011285673773429913,0.027762337066325065,0.013466547179881546,0.019568108287579326,2.4274844895160883,0.00493203431173658
16.879999999999974,0.011086443139247885,0.027535544445130143,0.013460700220536035,0.019602641918798087,2.4295059563911487,0.0049406403790440865
16.889999999999976,0.010887848450456927,0.027316857287327176,0.013455166988677018,0.019640807474976183,2.4314394149708827,0.004948975157095348
16.899999999999977,0.010690106376446424,0.027106450383657686,0.013449973337563169,0.019682576271968066,2.4332802403761207,0.00495702668809583
16.909999999999975,0.01049342926666479,0.02690447036681612,0.01344514191650345,0.019727908433810594,2.4350233811162467,0.0049647823777183835
16.919999999999973,0.010298024918535856,0.026711036269683512,0.013440692221755294,0.01977675301453228,2.436663380206829,0.004972229038286121
16.929999999999975,0.010104096353532118,0.02652624012620393,0.013436640654399439,0.019829048141392202,2.4381943975264244,0.004979352934059961
16.939999999999976,0.009911841601796685,0.026350147613133146,0.013433000584868963,0.019884721179657755,2.4396102333703027,0.004986139828538576
16.949999999999974,0.009721453495676524,0.02618279873083647,0.013429782423780212,0.019943688918993542,2.4409043531542025,0.004992575033669083
16.959999999999972,0.009533119472495752,0.026024208521259765,0.01342699369868642,0.02000585778149803,2.442069913214934,0.004998643460854168
16.969999999999974,0.009347021386862957,0.025874367821133636,0.01342463913634859,0.020071124051379122,2.4430997876473457,0.005004329673626718
16.979999999999976,0.009163335332772774,0.02573324404839093,0.013422720750092453,0.02013937412620183,2.4439865961099994,0.005009617941848758
16.989999999999974,0.00898223147572962,0.025600782019686057,0.013421237931795404,0.0202104847895761,2.444722732525525,0.005014492297279103
16.99999999999997,0.008803873895090757,0.025476904796807236,0.013420187548024064,0.02028432350508411,2.445300394596056,0.005018936590343636
17.009999999999973,0.008628420436797166,0.025361514559676175,0.013419564039820366,0.020360748731174994,2.445711614048808,0.005022934547932784
17.019999999999975,0.00845602257663464,0.025254493503540015,0.01341935952561245,0.020439610256680552,2.4459482875214875,0.005026469832042937
17.029999999999973,0.008286825294145364,0.02515570475788317,0.01341956390671199,0.0205207495565292,2.446002207992285,0.005029526099073279
17.03999999999997,0.00812096695729281,0.02506499332452501,0.013420164974864025,0.020604000167157934,2.4458650966548885,0.005032087059586624
17.049999999999972,0.007958579217969384,0.024982187032319064,0.013421148521346854,0.020689188081044797,2.445528635134324,0.0050341365383395585
17.059999999999974,0.007799786918423004,0.024907097505822755,0.013422498447170052,0.02077613215970841,2.444984497933884,0.005035658534381475
17.069999999999972,0.007644708008662379,0.024839521145262274,0.0134241968739688,0.02086464456444881,2.4442243849979883,0.005036637281015307
17.07999999999997,0.007493453474881124,0.024779240115083312,0.013426224255228209,0.020954531204033663,2.443240054272779,0.005037057305409145
17.08999999999997,0.007346127278919896,0.02472602333836937,0.01342855948748982,0.02104559219846343,2.442023354146775,0.005036903487650195
17.099999999999973,0.007202826308765508,0.024679627494450115,0.01343118002119664,0.02113762235787525,2.440566255657142,0.005036161119039926
17.10999999999997,0.007063640340067355,0.02463979801715049,0.013434061970830382,0.021230411675569077,2.438860884351101,0.005034815959438323
17.11999999999997,0.006928652008635976,0.02460627009134692,0.013437180223997492,0.021323745834064343,2.4368995516954266,0.005032854293472383
17.12999999999997,0.0067979367938767726,0.02457876964573421,0.013440508549140662,0.021417406723024876,2.4346747859303592,0.00503026298542936
17.139999999999972,0.006671563013102324,0.02455701433989934,0.013444019701587425,0.021511172967826998,2.4321793622688843,0.005027029532661522
17.14999999999997,0.006549591826656567,0.02454071454394423,0.013447685527684862,0.02160482046748863,2.4294063323490125,0.005023142117338755
17.159999999999968,0.006432077253771096,0.02452957430902298,0.013451477066802085,0.021698122940623357,2.4263490528547544,0.00501858965639767
17.16999999999997,0.006319066199057244,0.02452329232725195,0.013455364651013945,0.021790852478033116,2.423001213230113,0.005013361849549485
17.17999999999997,0.0062105984895185545,0.024521562879495785,0.013459318002312155,0.021882780100514126,2.4193568624193267,0.005007449225223368
17.18999999999997,0.006106706921948434,0.024524076769539892,0.013463306327218245,0.021973676320431363,2.4154104345753056,0.005000843184336941
17.199999999999967,0.00600741732055786,0.024530522243159773,0.013467298408693422,0.022063311705614746,2.4111567736856667,0.004993536041799377
17.20999999999997,0.005912748604657482,0.024540585890605416,0.01347126269525763,0.022151457444128612,2.406591157071217,0.004985521065662594
17.21999999999997,0.005822712866197198,0.024553953531032662,0.013475167387248884,0.02223788590844908,2.401709317715441,0.004976792513841248
17.22999999999997,0.005737315456944866,0.024570311077428963,0.013478980520174714,0.02232237121755361,2.396507465386714,0.0049673456683250366
17.239999999999966,0.005656555085064884,0.024589345380599967,0.013482670045128712,0.022404689795397545,2.390982306518473,0.004957176866811638
17.249999999999968,0.005580423920837787,0.024610745050814276,0.013486203906268297,0.02248462092423025,2.385131062816358,0.004946283531699216
17.25999999999997,0.005508907711244933,0.024634201255761067,0.013489550115380774,0.022561947291181765,2.378951488564873,0.004934664196393353
17.269999999999968,0.005441985903129344,0.024659408493570786,0.013492676823600754,0.022636455526520098,2.372441886609378,0.0049223185289003725
17.279999999999966,0.0053796317746358435,0.024686065339773088,0.013495552390373372,0.02270793673194064,2.3656011229930103,0.004909247352692495
17.289999999999967,0.005321812574629352,0.02471387516719112,0.013498145449780934,0.022776186997207813,2.3584286402326367,0.004895452664838538
17.29999999999997,0.005268489669787527,0.024742546837878444,0.013500424974371764,0.02284100790343783,2.3509244692224334,0.004880937651398561
17.309999999999967,0.0052196186990621845,0.024771795366291902,0.013502360336652192,0.02290220701131663,2.3430892397573793,0.004865706700084629
17.319999999999965,0.005175149735203499,0.024801342552957923,0.013503921368419023,0.022959598332623052,2.3349241896725776,0.0048497654101948475
17.329999999999966,0.005135027453039601,0.024830917587926927,0.013505078418111563,0.023013002783574224,2.3264311725994284,0.004833120599835828
17.339999999999968,0.005099191304198805,0.02486025762332925,0.013505802406346584,0.02306224861867397,2.317612664347387,0.0048157803104607955
17.349999999999966,0.0050675756979530005,0.024889108314373,0.013506064879773134,0.023107171843874497,2.308471767929568,0.004797753808765324
17.359999999999964,0.005040110187853556,0.024917224328177223,0.013505838063358058,0.02314761660795256,2.2990122172595435,0.004779051585996645
17.369999999999965,0.005016719663828921,0.02494436981990477,0.013505094911195066,0.02318343557107202,2.2892383795531566,0.0047596853547423705
17.379999999999967,0.0049973245494135034,0.024970318875722017,0.013503809155917066,0.023214490249562337,2.2791552564727557,0.004739668043270896
17.389999999999965,0.004981841003775454,0.0249948559221467,0.013501955356773803,0.02324065133599588,2.268768484053269,0.004719013787500968
17.399999999999963,0.004970181128203972,0.025017776101347318,0.013499508946410964,0.023261798993711353,2.258084331451229,0.004697737920683495
17.409999999999965,0.004962253176705563,0.025038885611942837,0.013496446276356213,0.023277823125002924,2.247109698559246,0.004675856960884233
17.419999999999966,0.004957961770345156,0.02505800201483683,0.013492744661189897,0.023288623612264126,2.2358521125283697,0.004653388596359489
17.429999999999964,0.004957208114953546,0.025074954503623924,0.013488382421358571,0.023294110531459206,2.224319723238485,0.0046303516689165
17.439999999999962,0.004959890221808484,0.025089584139154644,0.013483338924578148,0.0232942043374334,2.21252129775281,0.004606766155345529
17.449999999999964,0.004965903130884781,0.025101744047961894,0.013477594625766991,0.023288836020774056,2.2004662137875592,0.00458265314700357
17.459999999999965,0.004975139136259704,0.025111299584423,0.013471131105448344,0.023277947236152553,2.1881644522223977,0.004558034827621343
17.469999999999963,0.004987488013252202,0.025118128456700823,0.013463931106570725,0.02326149040226573,2.17562658867124,0.004532934449396394
17.47999999999996,0.005002837246867211,0.025122120816638588,0.013455978569712914,0.023239428773642545,2.1628637841262313,0.004507376307425418
17.489999999999963,0.005021072261112089,0.025123179313886846,0.013447258666656364,0.02321173648468352,2.1498877746806886,0.0044813857125186275
17.499999999999964,0.005042076648755674,0.02512121911463718,0.013437757832312772,0.023178398566352124,2.136710860329634,0.004454988962428249
17.509999999999962,0.005065732401112763,0.025116167885418837,0.013427463794986359,0.023139410935951857,2.1233458928394793,0.004428213311511735
17.51999999999996,0.005091920137455634,0.025107965742469342,0.013416365604931228,0.023094780360432922,2.109806262671527,0.004401086938837709
17.529999999999962,0.005120519333675781,0.02509656516724402,0.013404453661136883,0.0230445243936969,2.0961058849376237,0.004373638914729955
17.539999999999964,0.0051514085498381885,0.025081930888729575,0.013391719736243035,0.022988671288392236,2.0822591843614235,0.004345899165734549
17.54999999999996,0.0051844656562815405,0.025064039733381324,0.013378156999453264,0.022927259882699884,2.0682810792168254,0.004317898437991147
17.55999999999996,0.005219568057919844,0.025042880443661913,0.013363760037289363,0.02286033946261173,2.054186964217196,0.00428966825899297
17.56999999999996,0.005256592916399896,0.025018453466269835,0.013348524872007462,0.022787969600244935,2.0399926923340734,0.004261240897728974
17.579999999999963,0.0052954173697712026,0.02499077071121606,0.01333244897748513,0.02271021996882975,2.0257145555299525,0.0042326493232117636
17.58999999999996,0.0053359187493308285,0.02495985528298051,0.01331553129238563,0.022627170135120517,2.011369264395009,0.004203927161403643
17.59999999999996,0.005377974793312448,0.024925741185075328,0.013297772230408502,0.022538909330059868,1.996973926682525,0.004175108650561088
17.60999999999996,0.005421463857097625,0.024888472999440085,0.013279173687439992,0.02244553619856511,1.982546024743081,0.00414622859502544
17.619999999999962,0.005466265119640785,0.024848105542176018,0.013259739045417104,0.02234715852933207,1.968103391863003,0.004117322317493503
17.62999999999996,0.005512258785814028,0.0248047034971881,0.013239473172714726,0.0222438929655899,1.9536641875166751,0.004088425609803814
17.639999999999958,0.005559326284386547,0.024758341029345467,0.013218382420863446,0.02213586469779306,1.9392468715446338,0.004059574682272736
17.64999999999996,0.00560735046135307,0.024709101378788272,0.013196474617418977,0.022023207139290783,1.9248701772715242,0.004030806111612944
17.65999999999996,0.005656215768321169,0.024657076438002672,0.01317375905484157,0.021906061586057308,1.9105530835823779,0.004002156787468753
17.66999999999996,0.005705808445664222,0.024602366313261532,0.01315024647530082,0.021784576861594237,1.8963147859820597,0.003973663857607163
17.679999999999957,0.00575601670014843,0.02454507887199404,0.013125949051382075,0.021658908948131224,1.8821746666684842,0.0039453646718064445
17.68999999999996,0.005806730876748808,0.024485329277610615,0.013100880362722195,0.021529220605249668,1.868152263653548,0.003917296724484695
17.69999999999996,0.005857843624378623,0.024423239513281732,0.013075055368644799,0.021395680977034644,1.8542672389672912,0.0038894975961121696
17.709999999999958,0.005909250055266135,0.02435893789616081,0.013048490376904958,0.02125846518882875,1.8405393459823376,0.00386200489345625
17.719999999999956,0.005960847897718984,0.024292558583545062,0.013021203008689485,0.021117753934624346,1.826988395898232,0.0038348561887166822
17.729999999999958,0.006012537642019517,0.024224241072464715,0.012993212160042431,0.02097373305609079,1.8136342234285596,0.0038080889576188486
17.73999999999996,0.006064222679194798,0.024154129694167248,0.012964537959890807,0.020826593114194464,1.8004966517363297,0.003781740516540942
17.749999999999957,0.0061158094324047195,0.024082373104922863,0.012935201724840592,0.020676528954339822,1.7875954566645875,0.0037558479587559137
17.759999999999955,0.006167207480693264,0.024009123774528313,0.012905225910911545,0.02052373926594346,1.7749503303112175,0.0037304480898738704
17.769999999999957,0.006218329674856268,0.023934537473834522,0.012874634062386746,0.02036842613734266,1.7625808440014519,0.003705577362578706
17.77999999999996,0.006269092245196377,0.023858772762573324,0.012843450757965067,0.02021079460692261,1.750506410718554,0.0036812718107638153
17.789999999999957,0.006319414900959635,0.02378199047870806,0.012811701554412443,0.020051052211322484,1.7387462470602457,0.0036575669831822406
17.799999999999955,0.006369220921272235,0.02370435323047457,0.012779412927904703,0.019889408531562264,1.7273193347940181,0.003634497876734286
17.809999999999956,0.00641843723741445,0.023626024892214437,0.012746612213241628,0.01972607473792895,1.716244382088741,0.003612098869520934
17.819999999999958,0.00646699450627884,0.023547170105046884,0.012713327541094882,0.019561263134467936,1.7055397845041722,0.003590403653796313
17.829999999999956,0.006514827174862743,0.023467953783398006,0.012679587773438385,0.019395186703935176,1.6952235858248883,0.003569445168958871
17.839999999999954,0.006561873535645315,0.023388540628404397,0.012645422437305308,0.019228058654075852,1.6853134388312103,0.0035492555347304815
17.849999999999955,0.006608075772700143,0.023309094649209272,0.012610861657023856,0.019060091966104344,1.6758265661068998,0.0035298659846855194
17.859999999999957,0.0066533799983963466,0.02322977869314583,0.012575936085098985,0.01889149894626675,1.6667797209906485,0.003511306800305091
17.869999999999955,0.00669773628054494,0.023150753985751546,0.012540676831915917,0.018722490781371316,1.658189148783737,0.0034936072457407326
17.879999999999953,0.006741098659854471,0.023072179681495907,0.01250511539443705,0.018553277099175612,1.650070548328905,0.0034767955034758066
17.889999999999954,0.006783425157574066,0.02299421242605088,0.012469283584055045,0.018384065534519725,1.6424390340763635,0.003460898611073858
17.899999999999956,0.0068246777732301105,0.022917005930894397,0.012433213453765513,0.0182150613020891,1.6353090987531866,0.003445942399203698
17.909999999999954,0.006864822472408117,0.02284071056100833,0.012396937224835926,0.018046466776679333,1.6286945767526884,0.0034319514311318424
17.919999999999952,0.00690382916458566,0.02276547293640659,0.012360487213164857,0.017878481081824316,1.6226086083606703,0.0034189489438737827
17.929999999999954,0.006941671671073996,0.02269143554819701,0.01232389575553936,0.017711299687643862,1.617063604935031,0.0034069567911954417
17.939999999999955,0.006978327683174486,0.022618736389838263,0.012287195136006714,0.017545114018763363,1.6120712151536227,0.003395995388654119
17.949999999999953,0.0070137787107075735,0.022547508604205072,0.012250417512584008,0.01738011107314568,1.6076422924426508,0.0033860836608639497
17.95999999999995,0.007048010021126617,0.02247788014702863,0.012213594844536848,0.017216473052647778,1.6037868636946806,0.0033772389911646996
17.969999999999953,0.007081010569478248,0.02240997346723707,0.012176758820462093,0.017054377006075115,1.6005140993814988,0.0033694771738648965
17.979999999999954,0.007112772919507055,0.02234390520468607,0.012139940787404413,0.01689399448546625,1.5978322851625701,0.0033628123692211478
17.989999999999952,0.007143293156224212,0.02227978590575152,0.012103171681225988,0.016735491216310714,1.59574879508485,0.0033572570613055646
17.99999999999995,0.007172570790274292,0.022217719757257327,0.012066481958441766,0.01657902678239084,1.5942700664645002,0.0033528220189033846
18.009999999999952,0.007200608654453626,0.022157804339219076,0.012029901529734384,0.01642475432593574,1.5934015765357499,0.003349516259573866
18.019999999999957,0.007227412792762483,0.02210013039688153,0.011993459695370875,0.016272820263766856,1.5931478209467125,0.0033473470169990594
18.02999999999995,0.0072529923424076975,0.022044781632511577,0.011957185082750005,0.01612336402008701,1.5935122941765056,0.003346319711736248
18.03999999999995,0.00727735940920299,0.021991834517385223,0.01192110558630715,0.015976517776520274,1.594497471942464,0.003346437925480207
18.04999999999995,0.007300528936837017,0.021941358124375754,0.011885248309989308,0.01583240623995704,1.5961047956605685,0.00334770337893118
18.059999999999956,0.0073225185704958555,0.02189341398150464,0.01184963951248934,0.015691146428703864,1.5983346590164187,0.0033501159133543642
18.06999999999995,0.0073433485153427845,0.021848055946759967,0.01181430455540409,0.015552847477384377,1.6011863966981605,0.0033536734759067907
18.07999999999995,0.007363041390378745,0.021805330104431413,0.011779267854463598,0.015417610460988612,1.604658275336885,0.003358372108797392
18.08999999999995,0.007381622078230003,0.021765274683161414,0.011744552833971142,0.01528552823842313,1.6087474866941192,0.003364205942335311
18.09999999999995,0.007399117571426677,0.021727919995867494,0.011710181884591695,0.015156685315870938,1.613450143130129,0.0033711671919101063
18.10999999999995,0.0074155568157398535,0.021693288401643456,0.01167617632462171,0.015031157730226645,1.6187612753808327,0.003379246158936021
18.119999999999948,0.007430970551136978,0.021661394289694477,0.011642556364862649,0.01490901295282885,1.6246748326651552,0.003388431235781301
18.12999999999995,0.007445391150900951,0.0216322440853014,0.011609341077204034,0.014790309813669064,1.6311836851387154,0.003398708914693211
18.13999999999995,0.007458852459443155,0.02160583627774542,0.011576548366999286,0.014675098446213668,1.6382796287038668,0.003410063800719922
18.14999999999995,0.007471389629325622,0.021582161470060833,0.011544194949290147,0.014563420252932604,1.6459533921802767,0.0034224786286217858
18.159999999999947,0.0074830389579907675,0.021561202450425386,0.011512296328906822,0.01445530789158578,1.6541946468344664,0.0034359342837562497
18.16999999999995,0.007493837724677501,0.021542934284948693,0.011480866784445548,0.014350785282275673,1.6629920182610989,0.003450409826912507
18.17999999999995,0.007503824027981073,0.02152732443157743,0.011449919356106238,0.01424986763523165,1.6723331006032323,0.003465882523063579
18.189999999999948,0.00751303662449239,0.02151433287479177,0.01141946583736207,0.014152561499247492,1.6822044730930787,0.003482327873994342
18.199999999999942,0.007521514768931141,0.02150391228071311,0.011389516770432,0.014058864830649893,1.6925917188888167,0.0034997196547538042
18.209999999999948,0.0075292980561664155,0.021496008172178463,0.011360081445534253,0.013968767082635074,1.703479446176719,0.003518029953868944
18.21999999999995,0.0075364262655001155,0.021490559123268523,0.01133116790390763,0.013882249314774825,1.7148513115014639,0.0035372292172463366
18.229999999999947,0.007542939207574057,0.02148749697270922,0.011302782944592195,0.013799284322460935,1.7266900452811043,0.0035572862956772255
18.239999999999945,0.007548876574249757,0.02148674705550769,0.011274932134962149,0.013719836786024482,1.7389774794568507,0.0035781684958514936
18.249999999999947,0.00755427779179675,0.02148822845213791,0.011247619825005556,0.013643863439231912,1.751694577221447,0.003599841634775404
18.25999999999995,0.007559181877709013,0.02149185425455599,0.01122084916534945,0.013571313256823625,1.7648214647634817,0.003622270097476631
18.269999999999943,0.007563627301450771,0.021497531848287853,0.011194622129031951,0.013502127660723425,1.778337464958523,0.003645416897868594
18.279999999999944,0.007567651849414035,0.021505163209782914,0.01116893953702077,0.013436240744509047,1.7922211329316848,0.003669243742635622
18.289999999999942,0.007571292494349757,0.0215146452181665,0.01114380108746804,0.01337357951569565,1.806450293410251,0.003693711097991647
18.299999999999947,0.007574585269511507,0.02152586998045669,0.011119205388677599,0.013314064155346647,1.8210020797793547,0.0037187782591579835
18.309999999999945,0.007577565147725527,0.021538725169241872,0.011095149995745866,0.013257608294489085,1.8358529747482348,0.0037444034223994556
18.319999999999943,0.007580265925576887,0.0215530943717441,0.011071631450820152,0.013204119306772863,1.850978852529085,0.003770543759451918
18.329999999999945,0.007582720112882201,0.021568857449119305,0.011048645326895956,0.013153498616772992,1.8663550224248056,0.003797155494167375
18.339999999999947,0.007584958827609223,0.02158589090477027,0.011026186275046186,0.013105642023290974,1.8819562737160254,0.0038241939811949135
18.349999999999945,0.007587011696403044,0.021604068260374344,0.01100424807494167,0.013060440036965916,1.8977569217315862,0.003851613786506133
18.359999999999943,0.007588906760882059,0.02162326043825543,0.010982823688486403,0.013017778231459222,1.9137308549804763,0.0038793687695631075
18.369999999999944,0.007590670389866271,0.021643336148659625,0.010961905316355262,0.012977537607429342,1.9298515832172076,0.0039074121669164415
18.379999999999946,0.00759232719769255,0.02166416228042965,0.01094148445719011,0.012939594968464793,1.9460922863069976,0.003935696677011582
18.389999999999944,0.007593899968758834,0.0216856042935235,0.010921551969186342,0.012903823308094621,1.9624258637515941,0.003964174545972885
18.39999999999994,0.007595409588425375,0.02170752661179638,0.010902098133790011,0.012870092206945937,1.9788249847309454,0.0039927976541263895
18.409999999999943,0.007596874980386962,0.021729793014460923,0.010883112721222594,0.01283826823906915,1.995262138510774,0.004021517603014611
18.419999999999945,0.007598313050615117,0.021752267024646565,0.010864585057547851,0.01280821538640449,2.011709685063122,0.004050285802652485
18.429999999999943,0.007599738637954588,0.021774812293483038,0.010846504092986405,0.012779795460321094,2.0281399057475653,0.004079053558775281
18.43999999999994,0.00760116447144584,0.021797292978146376,0.010828858471173413,0.012752868529124311,2.0445250539047373,0.004107772159836116
18.449999999999942,0.007602601134435075,0.02181957411235731,0.010811636599053662,0.012727293350397979,2.0608374052189973,0.004136392963518857
18.459999999999944,0.0076040570355241175,0.021841521967935172,0.010794826717120877,0.012702927807022318,2.07704930771192,0.004164867482538472
18.469999999999946,0.007605538386402874,0.021863004406186083,0.010778416969729109,0.012679629345678694,2.0931332312329607,0.004193147469505908
18.47999999999994,0.007607049186595982,0.021883891218126336,0.010762395475228056,0.012657255416617016,2.109061816319498,0.004221185000641584
18.48999999999994,0.00760859121514392,0.021904054452783112,0.010746750395700786,0.01263566391342454,2.124807922306308,0.004248932558132626
18.499999999999943,0.007610164029230422,0.02192336873303035,0.010731470006112047,0.012614713611503183,2.140344674573943,0.004276343110943619
18.50999999999994,0.007611764969765043,0.021941711558565922,0.010716542762702959,0.01259426460394049,2.1556455108355337,0.0043033701939073936
18.51999999999994,0.007613389173930114,0.021958963595707225,0.010701957370486353,0.012574178733445988,2.1706842263715713,0.0043299679849398125
18.52999999999994,0.007615029594699474,0.021975008953700043,0.010687702849704673,0.012554320019017316,2.1854350181323343,0.004356091380240252
18.539999999999942,0.007616677027327621,0.02198973544723654,0.0106737686011135,0.012534555075996144,2.199872527637843,0.004381696067356883
18.54999999999994,0.0076183201427917025,0.02200303484489171,0.010660144469954277,0.012514753528172435,2.213971882615264,0.004406738596012391
18.55999999999994,0.007619945528148436,0.02201480310322976,0.010646820808481939,0.012494788410601492,2.2277087373229314,0.004431176446600701
18.56999999999994,0.007621537733747918,0.02202494058640211,0.010633788536913545,0.012474536561818298,2.241059311518179,0.0044549680962783535
18.57999999999994,0.007623079327229429,0.0220333522711387,0.010621039202659924,0.012453879004173338,2.2540004280329518,0.004478073082585454
18.58999999999994,0.007624550954211963,0.022039947937095513,0.010608565037699257,0.01243270131107566,2.2665095489272225,0.004500452064541749
18.599999999999937,0.0076259314055829,0.02204464234254444,0.010596359013960428,0.012410893960007817,2.2785648101963316,0.004522066881174702
18.60999999999994,0.007627197691277496,0.02204735538538733,0.010584414896607037,0.012388352670262831,2.290145055014307,0.004542880607448369
18.61999999999994,0.007628325120425879,0.0220480122494775,0.010572727295137434,0.01236497872443249,2.301229865499551,0.004562857607571691
18.62999999999994,0.007629287387723094,0.02204654353625979,0.010561291712225232,0.012340679272742804,2.3117995929910586,0.00458196358567047
18.639999999999937,0.007630056665854169,0.02204288538178436,0.010550104590214065,0.01231536761938273,2.3218353868235617,0.004600165633810259
18.649999999999935,0.007630603703784123,0.022036979559187368,0.0105391633551581,0.01228896349000591,2.33131922159025,0.004617432277360236
18.65999999999994,0.007630897930704661,0.022028773566756303,0.010528466458277406,0.012261393279608327,2.3402339228823252,0.0046337335176915625
18.669999999999938,0.007630907565414569,0.02201822070171538,0.010518013414681893,0.012232590280014026,2.3485631914951153,0.004649040872206674
18.679999999999936,0.007630599730897115,0.022005280119875004,0.010507804839210924,0.012202494886261716,2.3562916260910627,0.004663327411698679
18.689999999999937,0.007629940573843091,0.02198991688128128,0.010497842479232732,0.012171054781293936,2.3634047443110595,0.004676567795043229
18.69999999999994,0.007628895388851465,0.021972101981978624,0.010488129244241619,0.012138225098492224,2.3698890023273353,0.004688738301228078
18.709999999999937,0.007627428747020746,0.021951812371980173,0.010478669232082509,0.012103968561735021,2.3757318128334863,0.004699816858727776
18.71999999999993,0.007625504628624498,0.0219290309595437,0.010469467751629043,0.012068255602756747,2.380921561470162,0.0047097830722329
18.729999999999936,0.007623086559545885,0.021903746601868203,0.010460531341745549,0.012031064455665784,2.3854476216875526,0.004718618246744408
18.739999999999934,0.007620137751128873,0.021875954082335655,0.010451867786369131,0.011992381228552305,2.38930036804683,0.0047263054090424
18.749999999999936,0.007616621243086032,0.02184565407441338,0.010443486125550858,0.011952199952190403,2.392471187961389,0.004732829326533323
18.75999999999993,0.007612500049083895,0.021812853092313064,0.010435396662296469,0.011910522605914067,2.3949524918749114,0.004738176523470196
18.769999999999936,0.00760773730460746,0.021777563428485438,0.010427610965051837,0.01186735912082417,2.3967377218674097,0.004742335294528092
18.779999999999937,0.007602296416686656,0.021739803078029397,0.010420141865685803,0.011822727360558909,2.3978213586737525,0.004745295715705369
18.78999999999993,0.00759614121505123,0.021699595650126278,0.010413003452828385,0.011776653079921897,2.3981989270931963,0.0047470496525137415
18.799999999999933,0.0075892361042675,0.02165697026667941,0.010406211060424692,0.011729169861700441,2.3978669997647377,0.004747590765418973
18.80999999999993,0.007581546216401109,0.021611961448428016,0.01039978125137137,0.011680319032026052,2.396823199282772,0.004746914512497516
18.819999999999936,0.007573037563743158,0.02156460898888705,0.010393731796123195,0.01163014955464794,2.3950661986306416,0.004745018149279918
18.82999999999993,0.007563677191132863,0.021514957816530244,0.010388081646198324,0.011578717904527006,2.3925957199148735,0.00474190072575783
18.83999999999993,0.007553433327407168,0.02146305784568963,0.010382850902567175,0.0115260879212227,2.3894125313890333,0.00473756308053868
18.84999999999993,0.007542275535505728,0.021408963816701966,0.010378060778965328,0.011472330642636409,2.3855184427625677,0.0047320078321405525
18.859999999999932,0.00753017486075756,0.021352735125895198,0.010373733560207354,0.011417524119774447,2.3809162987957677,0.0047252393674269855
18.869999999999933,0.007517103976873045,0.02129443564607197,0.010369892555589724,0.011361753213274199,2.3756099711857956,0.00471726382718441
18.87999999999993,0.007503037329160407,0.021234133538197416,0.010366562047467665,0.011305109372485536,2.369604348750416,0.004708089088844692
18.889999999999933,0.00748795127447885,0.021171901055018604,0.010363767235091937,0.011247690397923914,2.3629053259169344,0.004697724746355345
18.89999999999993,0.007471824217432325,0.0211078143373286,0.01036153417381406,0.011189600187922009,2.355519789525315,0.004686182087203586
18.909999999999933,0.0074546367423013295,0.02104195320354601,0.01035988970981246,0.011130948470308826,2.3474556039573087,0.004673474066607701
18.91999999999993,0.007436371740209006,0.020974400933224842,0.01035886141053701,0.011071850519945999,2.3387215946073425,0.00465961527889788
18.92999999999993,0.007417014531025866,0.02090524404505818,0.010358477491097128,0.01101242686295741,2.329327529715273,0.004644621926116815
18.93999999999993,0.007396552979536091,0.020834572069909667,0.010358766736832597,0.010952802968498137,2.3192841005856515,0.004628511783877836
18.94999999999993,0.007374977605413181,0.020762477319401094,0.010359758422321756,0.010893108928915412,2.308602900223195,0.004611304164526371
18.95999999999993,0.007352281686577817,0.020689054650588724,0.010361482227104092,0.010833479129156305,2.2972964004192526,0.0045930198776584046
18.96999999999993,0.00732846135553336,0.020614401227265336,0.010363968148418449,0.010774051906274758,2.285377927327929,0.004573681188055524
18.979999999999933,0.007303515688295778,0.02053861627843259,0.010367246411279485,0.010714969199881715,2.27286163557248,0.004553311771098887
18.98999999999993,0.007277446785556046,0.020461800854508553,0.010371347376232515,0.010656376194368648,2.2597624809240076,0.0045319366657269105
18.99999999999993,0.0072502598457341695,0.02038405758186837,0.010376301445137306,0.010598420953728932,2.246096191598154,0.004509582225008794
19.00999999999993,0.0072219632296031296,0.020305490416349103,0.010382138965331524,0.010541254049812376,2.231879238222742,0.0044862760644204715
19.01999999999993,0.007192568516176278,0.020226204396365466,0.0103888901325139,0.010485028184868149,2.2171288025384097,0.004462047007927484
19.02999999999993,0.00716209054956259,0.020146305396277268,0.010396584892669015,0.010429897809243744,2.2018627449024897,0.0044369250319951726
19.039999999999928,0.007130547476502186,0.02006589988063323,0.010405252843333958,0.010376018735104913,2.1860995706724724,0.0044109412076592655
19.04999999999993,0.007097960774302298,0.019985094659899578,0.010414923134487754,0.010323547747026608,2.169858395549954,0.00438412764080137
19.05999999999993,0.00706435526890674,0.019903996648263294,0.01042562436933215,0.010272642210283546,2.15315890996989,0.004356517410784604
19.06999999999993,0.007029759142854625,0.01982271262406951,0.01043738450522805,0.010223459677643886,2.1360213426230508,0.00432814450761295
19.079999999999927,0.006994203932915596,0.019741348993403462,0.010450230755050275,0.01017615749544538,2.118466423200898,0.004299043767781337
19.08999999999993,0.006957724517225523,0.019660011557267407,0.010464189489217979,0.010130892409718149,2.1005153444509443,0.004269250808981
19.09999999999993,0.00692035909179261,0.019578805282747806,0.010479286138647369,0.01008782017311533,2.0821897236273217,0.004238801963817178
19.10999999999993,0.006882149136308807,0.019497834078529803,0.010495545098860939,0.010047095153416131,2.063511563416601,0.004207734212685742
19.119999999999926,0.006843139369284369,0.019417200575092684,0.010512989635477598,0.010008869944365678,2.0445032124133276,0.004176085115943264
19.129999999999928,0.006803377692610157,0.01933700590989941,0.010531641791303533,0.009973294979610482,2.0251873252134622,0.004143892745492281
19.13999999999993,0.006762915125729209,0.019257349517867513,0.010551522295242534,0.009940518150481298,2.005586822187257,0.0041111956158903186
19.149999999999928,0.0067218057296604475,0.01917832892737741,0.010572650473239584,0.009910684428368293,1.9857248489863508,0.004078032615078553
19.15999999999993,0.006680106521160564,0.019100039562038523,0.010595044161457382,0.00988393549242752,1.9656247358332306,0.004044442934813939
19.169999999999927,0.006637877377336676,0.0190225745483941,0.010618719621864328,0.009860409363356054,1.9453099566351821,0.0040104660008776
19.17999999999993,0.0065951809310411495,0.018946024529708463,0.010643691460391512,0.009840240043976071,1.924804087961,0.00397614140312418
19.189999999999927,0.006552082457399166,0.01887047748595677,0.010669972547801599,0.009823557167366576,1.9041307679190362,0.0039415088254347065
19.199999999999925,0.006508649751840279,0.01879601856013048,0.01069757394340661,0.00981048565326642,1.8833136549801457,0.003906607975640665
19.209999999999926,0.006464953000023909,0.01872272989097182,0.010726504821771527,0.00980114537344388,1.8623763867971692,0.0038714785154976474
19.219999999999928,0.0064210646400631845,0.018650690452248583,0.010756772402539031,0.009795650826693167,1.8413425390817013,0.0038361599908003736
19.22999999999993,0.006377059217460921,0.0185799758986855,0.010788381883500507,0.009794110824083322,1.820235584607618,0.003800691761744191
19.239999999999924,0.0063330132331776015,0.01851065841870012,0.010821336377020676,0.009796628185053353,1.7990788524184043,0.0037651129336494357
19.249999999999925,0.006289004985258023,0.018442806594150644,0.010855636849905377,0.009803299444921133,1.7778954873215556,0.003729462288175458
19.259999999999927,0.00624511440445598,0.018376485267369076,0.01089128206679297,0.009814214574353134,1.7567084097588195,0.0036937782151645095
19.269999999999925,0.006201422884317614,0.018311755415807884,0.010928268537154373,0.009829456711325709,1.735540276146529,0.003658098645273076
19.279999999999923,0.00615801310621025,0.018248674034665915,0.010966590466004763,0.009849101906094088,1.7144134397851345,0.003622460983565063
19.289999999999925,0.006114968859806642,0.01818729402787687,0.011006239708458569,0.009873218879668922,1.6933499124395326,0.0035869020442510103
19.29999999999993,0.006072374859547206,0.018127664107840995,0.01104720572829172,0.009901868796279184,1.6723713266907687,0.0035514579867575976
19.309999999999924,0.006030316557603398,0.01806982870426714,0.011089475560702455,0.009935105050273667,1.6514988991558859,0.003516164253304445
19.31999999999992,0.0059888799538562595,0.018013827882478503,0.011133033779477835,0.009972973067882165,1.6307533946678023,0.0034810555081551627
19.329999999999924,0.005948151403390974,0.017959697271523047,0.01117786246877676,0.010015510124223857,1.6101550915022662,0.0034461655786996947
19.339999999999925,0.005908217421996343,0.0179074680024135,0.011223941199735922,0.010062745175917279,1.5897237477343795,0.0034115273985161577
19.349999999999923,0.0058691644901505,0.01785716665679909,0.011271247012097798,0.010114698709617906,1.569478568802684,0.0033771729525520276
19.35999999999992,0.005831078855969754,0.017808815226346576,0.011319754401052925,0.010171382606789075,1.5494381763542369,0.003343133224556294
19.369999999999923,0.005794046337593209,0.017762431083086585,0.01136943530948087,0.01023280002499929,1.5296205784395185,0.003309438146885773
19.379999999999924,0.005758152125469202,0.01771802696096314,0.011420259125760442,0.010298945296028945,1.5100431411215591,0.003276116552800487
19.38999999999992,0.0057234805849999335,0.017675610948805365,0.011472192687297498,0.010369803841056223,1.4907225615594402,0.0032431961313555504
19.39999999999992,0.00569011505998858,0.017635186494919786,0.011525200289892231,0.0104453521031732,1.471674842622358,0.0032107033849908843
19.40999999999992,0.005658137677320287,0.017596752423475866,0.011579243703040304,0.010525557497460248,1.4529152690866476,0.0031786635899148405
19.419999999999924,0.0056276291532962345,0.017560302962823324,0.011634282191234009,0.010610378378822316,1.4344583854644066,0.003147100759372449
19.42999999999992,0.0055986686020291845,0.017525827785835453,0.011690272541299689,0.01069976402776604,1.4163179755085764,0.0031160376098829925
19.43999999999992,0.005571333346300233,0.017493312062319258,0.011747169095777438,0.010793654654272705,1.3985070434354046,0.0030854955305249887
19.44999999999992,0.005545698731270216,0.01746273652347442,0.011804923792323998,0.01089198141989815,1.381037796901076,0.0030554945553394586
19.459999999999923,0.005521837941433474,0.017434077538326157,0.011863486209105403,0.010994666478204976,1.3639216317649363,0.003026053338914335
19.46999999999992,0.005499821821193584,0.0174073072020094,0.011922803616143278,0.011101623033603574,1.3471691186671997,0.0029971891352039404
19.47999999999992,0.005479718699429685,0.01738239343574321,0.011982821032580047,0.011212755418646707,1.3307899914444545,0.002968917779628114
19.48999999999992,0.005461594218409903,0.017359300098296563,0.012043481289822406,0.011327959189788616,1.3147931374016886,0.0029412536744865803
19.49999999999992,0.005445511167396528,0.017337987108701713,0.012104725100504985,0.011447121241584894,1.2991865894549526,0.0029142097777158857
19.50999999999992,0.005431529321276122,0.01731841057992003,0.012166491133190035,0.01157011993927556,1.283977520154235,0.002887797595008192
19.51999999999992,0.005419705284537642,0.017300522963112682,0.0122287160926883,0.011696825269661867,1.2691722375918455,0.0028620271753030885
19.52999999999992,0.005410092340913774,0.017284273202117634,0.012291334805853042,0.011827099010155415,1.2547761831977462,0.002836907109655385
19.53999999999992,0.005402740308994078,0.017269606897683875,0.012354280312665906,0.011960794915843497,1.2407939314196579,0.002812444533473712
19.54999999999992,0.0053976954041110685,0.01725646648096261,0.012417483962402182,0.012097758924376449,1.2272291912821571,0.0027886451321168576
19.55999999999992,0.005395000106790146,0.01724479139570705,0.01248087551463345,0.012237829378443378,1.214084809815261,0.0027655131498272403
19.56999999999992,0.0053946930380407866,0.017234518288591193,0.01254438324479506,0.012380837265564144,1.201362777339202,0.0027430514019738663
19.57999999999992,0.005396808841750385,0.017225581207022795,0.012607934054013234,0.012526606474890078,1.1890642345882856,0.0027212612905702536
19.58999999999992,0.005401378074425937,0.017217911803787827,0.012671453582853771,0.01267495407067292,1.1771894816528223,0.002700142823025643
19.59999999999992,0.005408427102514248,0.017211439547820298,0.012734866328623367,0.012825690582028686,1.1657379887141102,0.00267969463407967
19.60999999999992,0.005417978007519155,0.01720609194034405,0.012798095765824203,0.012978620308587515,1.1547084085434145,0.0026599140108616117
19.61999999999992,0.0054300484991227195,0.01720179473558543,0.012861064469329874,0.013133541641580574,1.1440985907319556,0.002640796921005742
19.62999999999992,0.005444651836504831,0.017198472165208586,0.012923694239814057,0.013290247399872142,1.133905597615054,0.0026223380437451335
19.639999999999915,0.005461796758041135,0.01719604716558113,0.012985906230926585,0.013448525180399835,1.1241257218497747,0.0026045308038980973
19.64999999999992,0.005481487419543386,0.017194441606942123,0.013047621077685641,0.013608157722439704,1.1147545056017676,0.002587367408654748
19.65999999999992,0.0055037233411898805,0.017193576523520285,0.013108759025554242,0.01376892328506549,1.10578676129362,0.002570838887065615
19.66999999999992,0.005528499363277365,0.017193372343636375,0.013169240059702983,0.01393059603712394,1.0972165938637792,0.00255493513212895
19.679999999999914,0.005555805610909392,0.017193749118814865,0.013228984034024926,0.014092946459003214,1.089037424481791,0.0025396449453673996
19.68999999999992,0.005585627467719106,0.017194626750928258,0.013287910799544136,0.014255741755430727,1.0812420156622384,0.0025249560837776732
19.69999999999992,0.005617945558707585,0.017195925216412618,0.013345940331926738,0.014418746278500235,1.0738224977164001,0.002510855309029058
19.70999999999992,0.005652735742263415,0.01719756478663447,0.013402992857856918,0.01458172196009231,1.0667703964773063,0.0024973284387788176
19.719999999999917,0.005689969111415738,0.01719946624355413,0.013458988980085747,0.014744428752815288,1.0600766622304545,0.0024843603999652433
19.729999999999915,0.005729612004361042,0.01720155108990044,0.013513849801002575,0.014906625078557246,1.053731699779043,0.002471935283932604
19.73999999999992,0.005771626024292139,0.017203741753130677,0.013567497044615746,0.015068068283709959,1.047725399569327,0.002460036403236315
19.749999999999915,0.005815968068545731,0.017205961782500674,0.013619853176860576,0.015228515100109523,1.0420471697987403,0.002448646349971167
19.759999999999916,0.005862590367073007,0.017208136038638737,0.013670841524177251,0.015387722110735441,1.0366859694267037,0.0024377470554601817
19.769999999999914,0.005911440530226367,0.01721019087512083,0.013720386390316442,0.015545446219213098,1.0316303420056177,0.0024273198511367802
19.77999999999992,0.005962461605844838,0.017212054311678136,0.013768413171332934,0.01570144512216198,1.0268684502477161,0.0024173455304493563
19.789999999999917,0.006015592145610102,0.017213656198807332,0.013814848468718282,0.015855477783417216,1.0223881112424849,0.0024078044116155922
19.799999999999912,0.006070766280632592,0.017214928373675206,0.013859620200609487,0.016007304909125337,1.018176832239138,0.002398676401053809
19.809999999999917,0.006127913806212567,0.017215804807300426,0.01390265771100037,0.016156689422681305,1.0142218469087714,0.002389941057319399
19.819999999999915,0.006186960275704449,0.01721622174305584,0.013943891876878563,0.016303396938436864,1.0105101520008504,0.0023815776553750053
19.829999999999917,0.006247827103394645,0.017216117826571703,0.01398325521321081,0.016447196233073256,1.0070285443081572,0.002373565251022648
19.83999999999991,0.0063104316762840435,0.017215434227143184,0.01402068197569997,0.016587859713498646,1.0037636578530296,0.0023658827453242365
19.849999999999916,0.006374687474646411,0.017214114750760182,0.014056108261237276,0.016725163880106645,1.0007020012059842,0.0023585089488346984
19.859999999999918,0.0064405042012131075,0.017212105944884835,0.014089472105972762,0.01685888978421914,0.9978299948462528,0.0023514226454711662
19.869999999999912,0.006507787918813301,0.017209357195103785,0.01412071358092501,0.016988823478532672,0.9951340084727972,0.00234460265584401
19.87999999999991,0.006576441196279464,0.017205820813781747,0.014149774885047688,0.0171147564593891,0.9926003981741721,0.0023380278998822897
19.88999999999991,0.006646363262412087,0.01720145212084075,0.014176600435664818,0.017236486099690907,0.9902155433661477,0.002331677458597059
19.899999999999917,0.006717450167784738,0.01719620951678298,0.014201136956179595,0.01735381607127194,0.9879658834069999,0.0023255306348380655
19.90999999999991,0.006789594954158126,0.017190054548063355,0.014223333560956047,0.017466556755512414,0.9858379538013309,0.0023195670129087407
19.91999999999991,0.006862687831256774,0.017182951964905317,0.01424314183727334,0.0175745256409544,0.9838184219042939,0.0023137665169093405
19.92999999999991,0.006936616360643778,0.017174869771646232,0.014260515924258588,0.017677547706633514,0.9818941220402324,0.0023081094676804534
19.939999999999912,0.007011265646409294,0.01716577926969836,0.014275412588705868,0.017775455789797327,0.9800520899539202,0.0023025766382221667
19.94999999999991,0.007086518532368794,0.017155655093213394,0.01428779129767912,0.01786809093664325,0.97827959651865,0.0022971493074703734
19.95999999999991,0.007162255805449138,0.0171444752375345,0.014297614287777132,0.017955302734694964,0.9765641806323845,0.002291809312321327
19.96999999999991,0.00723835640492368,0.01713222108050535,0.01430484663091967,0.01803694962545687,0.9748936812396373,0.002286539097806391
19.97999999999991,0.007314697637140678,0.0171188773966838,0.014309456296505658,0.018112899196038208,0.9732562684210012,0.002281321765327441
19.98999999999991,0.007391155395370779,0.017104432364484928,0.014311414209806656,0.01818302844853133,0.9716404734934148,0.00227614111886725
19.999999999999908,0.007467604384379774,0.01708887756625456,0.014310694306491276,0.018247224046084868,0.9700352180631908,0.0022709817090889794
20.00999999999991,0.00754391834931393,0.01707220798124813,0.01430727358321192,0.018305382534837704,0.9684298419724606,0.0022658288752376837
20.01999999999991,0.0076199703084683865,0.01705442197146426,0.014301132144204193,0.01835741054114926,0.9668141300793772,0.002260668784757228
20.02999999999991,0.007695632789494407,0.017035521260266917,0.01429225324384538,0.018403224943844467,0.9651783378130999,0.0022554884705385395
20.039999999999907,0.007770778068587219,0.01701551090372869,0.014280623325100305,0.018442753021455215,0.9635132154453269,0.0022502758657182006
20.04999999999991,0.007845278412180898,0.016994399254638273,0.01426623205376195,0.01847593257464306,0.9618100310204312,0.002245019835948862
20.05999999999991,0.007919006320659526,0.016972197919128747,0.014249072348375795,0.01850271202410868,0.9600605918860123,0.002239710209064095
20.069999999999908,0.007991834773575601,0.016948921705889936,0.014229140405721152,0.018523050484348724,0.9582572647647468,0.0022343378020593173
20.079999999999902,0.008063637475850465,0.01692458856792533,0.014206435721709744,0.01853691781364454,0.9563929943066629,0.0022288944453070767
20.089999999999907,0.008134289104421613,0.01689921953680844,0.014180961107554136,0.01854429464068572,0.9544613200587057,0.0022233730039203643
20.09999999999991,0.008203665554803013,0.016872838649393197,0.01415272270105716,0.01854517236825784,0.952456391786279,0.002217767396173444
20.109999999999907,0.008271644187038943,0.01684547286694408,0.01412172997287985,0.01853955315446267,0.9503729830798454,0.0022120726088875366
20.119999999999905,0.008338104070554731,0.01681715198667617,0.0140879957276646,0.018527449871980968,0.9482065031793477,0.0022062847096903605
20.129999999999907,0.008402926227430465,0.016787908545729088,0.014051536099925016,0.018508886045923975,0.9459530069515405,0.002200400856066243
20.139999999999908,0.008465993873638783,0.01675777771763705,0.014012370544656974,0.018483895770849006,0.9436092029613982,0.002194419301128347
20.149999999999903,0.00852719265779185,0.016726797201400398,0.013970521822666436,0.018452523607541283,0.9411724595880693,0.002188339396064438
20.159999999999904,0.008586410896937097,0.01669500710331891,0.013926015980650991,0.01841482446018708,0.9386408091462075,0.0021821615892277458
20.169999999999902,0.008643539808931271,0.016662449811816173,0.013878882326121188,0.01837086343457372,0.9360129499833024,0.002175887421860914
20.179999999999907,0.008698473740911419,0.016629169865567606,0.01382915339730095,0.018320715677943147,0.9332882465331727,0.0021695195204532074
20.189999999999905,0.008751110393369283,0.016595213815340137,0.013776864928185601,0.01826446620109995,0.930466727316501,0.0021630615857423114
20.199999999999903,0.008801351039320305,0.016560630080042424,0.013722055808948051,0.018202209683343275,0.9275490808919479,0.002156518378386572
20.209999999999905,0.008849100738038658,0.0165254687975436,0.013664768041869701,0.018134050260767927,0.9245366497756795,0.0021498957013540536
20.219999999999903,0.008894268542807714,0.016489781670840194,0.013605046692947716,0.018060101298470403,0.9214314223623977,0.002143200379100442
20.229999999999905,0.00893676770211332,0.016453621810157203,0.013542939839312283,0.017980485147201776,0.9182360228959645,0.0021364402336343834
20.239999999999903,0.008976515853686742,0.01641704357157976,0.013478498512587062,0.017895332885031135,0.9149536995506423,0.002129624057590788
20.249999999999904,0.009013435210786055,0.01638010239282431,0.013411776638339992,0.017804784044620874,0.9115883106938857,0.0021227615844473377
20.259999999999906,0.00904745274009264,0.016342854626762746,0.013342830971787928,0.017708986326759588,0.9081443094093284,0.002115863456028809
20.269999999999904,0.009078500330598127,0.016305357373305893,0.01327172102992731,0.01760809530083353,0.9046267263651683,0.0021089411874511926
20.2799999999999,0.009106514952869927,0.016267668310234396,0.013198509020261923,0.01750227409293441,0.901041151118664,0.002102007129663849
20.289999999999903,0.009131438808110248,0.016229845523537907,0.01312325976628824,0.017391693062302652,0.8973937119518118,0.0020950744297523784
20.299999999999905,0.009153219466460768,0.016191947337794246,0.013046040629882067,0.017276529466800725,0.8936910543364637,0.0020881569891673386
20.309999999999903,0.009171809994047563,0.01615403214709371,0.012966921430713487,0.017156967118110114,0.889940318128982,0.002081269420044924
20.3199999999999,0.009187169068305471,0.01611615824698904,0.012885974362806812,0.01703319602735082,0.8861491135948937,0.002074426999785871
20.329999999999902,0.009199261081167687,0.01607838366792664,0.012803273908356652,0.016905412041830888,0.8823254963634538,0.00206764562405893
20.339999999999904,0.009208056229754465,0.016040766010586984,0.012718896748904173,0.016773816473642046,0.8784779414113071,0.0020609417583956143
20.349999999999905,0.009213530594244557,0.016003362283529443,0.012632921673967075,0.016638615720822085,0.8746153161736229,0.002054332388543142
20.3599999999999,0.00921566620266483,0.015966228743502106,0.012545429487206427,0.016500020881800432,0.8707468528797577,0.0020478349697412093
20.3699999999999,0.009214451082384173,0.015929420738748014,0.012456502910209635,0.016358247363828644,0.8668821202084772,0.0020414673750850675
20.379999999999903,0.00920987929814222,0.01589299255562657,0.0123662264839741,0.01621351448607759,0.8630309943553652,0.002035247843133052
20.3899999999999,0.009201950976481422,0.01585699726887469,0.012274686468187395,0.01606604507806401,0.8592036296026238,0.002029194924912303
20.3999999999999,0.009190672316487805,0.015821486595844307,0.01218197073840634,0.015916065074053295,0.8554104284790304,0.0020233274304721836
20.4099999999999,0.009176055586782994,0.015786510755056053,0.012088168681229711,0.01576380310407162,0.8516620115951904,0.0020176643751306108
20.419999999999902,0.009158119108742948,0.015752118329401127,0.01199337108753749,0.015609490082152993,0.8479691872363092,0.0020122249255538354
20.4299999999999,0.009136887225944298,0.01571835613431154,0.011897670043841313,0.015453358792452791,0.8443429207916319,0.0020070283458050605
20.4399999999999,0.009112390259861176,0.01568526909120438,0.01180115882176397,0.015295643473879515,0.840794304096638,0.0020020939434917625
20.4499999999999,0.009084664451862299,0.01565290010648516,0.011703931765646085,0.015136579403918968,0.8373345247612604,0.001997441016136251
20.4599999999999,0.009053751891595496,0.015621289956371616,0.011606084178271022,0.014976402482338794,0.8339748355549598,0.001993088797889772
20.4699999999999,0.009019700431894645,0.01559047717777996,0.011507712204709076,0.014815348815465654,0.8307265239174338,0.0019890564067075994
20.479999999999897,0.00898256359040064,0.015560497965501253,0.011408912714308012,0.014653654301726857,0.827600881661781,0.0019853627921002323
20.4899999999999,0.0089424004381571,0.015531386075880154,0.01130978318089224,0.014491554219144316,0.8246091749348006,0.0019820266835725046
20.4999999999999,0.008899275475525468,0.01550317273718758,0.0112104215612684,0.014329282815462769,0.8217626144967137,0.0019790665398576
20.5099999999999,0.008853258495854067,0.015475886566855952,0.01111092617216127,0.01416707290159345,0.8190723263801258,0.0019765004990475264
20.519999999999897,0.008804424437413128,0.015449553495726295,0.011011395565716014,0.014005155449068836,0.816549322985642,0.001974346329716792
20.529999999999895,0.008752853224157269,0.015424196699444755,0.010911928403705083,0.013843759192234196,0.8142044746691242,0.001972621383132103
20.5399999999999,0.00869862959589766,0.015399836537142709,0.01081262333058143,0.01368311023593378,0.812048481873015,0.0019713425466373114
20.549999999999898,0.008641842928472226,0.015376490497535448,0.010713578845530461,0.013523431669465411,0.8100918478515019,0.0019705261982988554
20.559999999999896,0.008582587044511656,0.015354173152572887,0.010614893173688538,0.013364943187569185,0.8083448520367332,0.0019701881628923206
20.569999999999897,0.008520960015418851,0.015332896118768051,0.010516664136708253,0.013207860719188688,0.8068175240909226,0.0019703436693058107
20.5799999999999,0.0084570639552011,0.015312668026316588,0.010418989022854997,0.013052396064705603,0.8055196186868981,0.0019710073094307556
20.589999999999897,0.008391004806804549,0.015293494496104275,0.010321964456817276,0.01289875654230722,0.8044605910573819,0.0019721929986059074
20.59999999999989,0.008322892121596254,0.015275378124677597,0.010225686269412256,0.012747144644106088,0.8036495733509598,0.0019739139376756883
20.609999999999896,0.008252838832627507,0.015258318477222319,0.010130249367373329,0.012597757702594555,0.8030953518303681,0.0019761825767199356
20.619999999999894,0.008180961022301812,0.015242312088558396,0.010035747603413789,0.01245078756798561,0.8028063449463738,0.0019790105805084215
20.629999999999896,0.008107377685065666,0.015227352472120929,0.009942273646762178,0.012306420296964323,0.8027905823181909,0.001982408795730239
20.63999999999989,0.008032210485739521,0.01521343013686159,0.009849918854361026,0.01216483585334838,0.8030556846491783,0.0019863872200452017
20.649999999999896,0.00795558351410702,0.0152005326119794,0.009758773142921288,0.012026207821128548,0.8036088446046306,0.0019909549730015206
20.659999999999897,0.007877623036379521,0.015188644479379588,0.009668924862038387,0.011890703130328226,0.8044568086767627,0.0019961202688607844
20.66999999999989,0.00779845724414785,0.015177747413759803,0.009580460668601128,0.01175848179608571,0.8056058600602727,0.0020018903913675157
20.679999999999893,0.007718216001422555,0.015167820230222062,0.009493465402752217,0.01162969667132448,0.8070618025599063,0.0020082716704965054
20.68999999999989,0.007637030590347263,0.015158838939301119,0.009408021965678966,0.01150449321333792,0.8088299455492755,0.002015269461207124
20.699999999999896,0.007555033456148553,0.015150776809293401,0.00932421119952088,0.011383009264579594,0.8109150899980083,0.0020228881242299918
20.70999999999989,0.007472357951863656,0.015143604435771158,0.009242111769677942,0.011265374847924533,0.8133215155824056,0.0020311310089078777
20.71999999999989,0.00738913808336753,0.015137289818167596,0.009161800049792194,0.011151711976654793,0.8160529688931822,0.0020400004381094642
20.72999999999989,0.007305508255204281,0.01513179844331101,0.009083350009658143,0.011042134479421296,0.819112652752434,0.0020494976952314422
20.739999999999892,0.007221603017714585,0.015127093375768348,0.009006833106299156,0.010936747840434429,0.8225032166504677,0.0020596230133010218
20.749999999999893,0.007137556815941542,0.015123135354836378,0.008932318178433072,0.010835649055128216,0.8262267483114533,0.0020703755661874443
20.75999999999989,0.007053503740792377,0.015119882897995953,0.008859871344546178,0.010738926501522668,0.8302847663949197,0.0020817534619273054
20.769999999999893,0.006969577282928708,0.015117292410622282,0.008789555904800888,0.010646659827480288,0.8346782143379404,0.0020937537381639773
20.77999999999989,0.006885910089849421,0.015115318301720962,0.008721432247012004,0.010558919854023739,0.8394074553405618,0.00210637235969593
20.789999999999893,0.006802633726616574,0.015113913105434367,0.008655557756929727,0.010475768494859494,0.844472268494769,0.0021196042181229145
20.79999999999989,0.006719878440659074,0.015113027608034884,0.008591986733059803,0.0103972586922377,0.8498718460550848,0.0021334431335738027
20.80999999999989,0.006637772931073585,0.015112610980092008,0.008530770306235438,0.010323434369265978,0.8556047918466931,0.002147881858495864
20.819999999999894,0.006556444122827537,0.015112610913475674,0.00847195636413997,0.010254330398779345,0.8616691208047504,0.0021629120834818585
20.82999999999989,0.006476016946254347,0.01511297376284564,0.008415589480971724,0.010189972588851301,0.8680622596363171,0.0021785244451076814
20.83999999999989,0.006396614122215142,0.015113644691277595,0.00836171085244411,0.010130377685015781,0.8747810485941588,0.002194708535749058
20.84999999999989,0.006318355953283316,0.015114567819680673,0.008310358236316786,0.010075553389254675,0.8818217443497369,0.0022114529153416033
20.859999999999893,0.006241360121288142,0.015115686379653274,0.008261565898648229,0.010025498395785953,0.8891800239512571,0.0022287451250455727
20.86999999999989,0.006165741491532789,0.015116942869396193,0.008215364565943817,0.009980202443661646,0.8968509898516721,0.00224657170277517
20.87999999999989,0.006091611923981873,0.015118279212257729,0.00817178138335096,0.009939646386155573,0.9048291759906676,0.0022649182005514425
20.88999999999989,0.006019080091694602,0.015119636917431973,0.00813083987902863,0.009903802276890535,0.9131085549133866,0.0022837692036359178
20.89999999999989,0.005948251306761025,0.015120957242276032,0.008092559934795162,0.009872633472623824,0.9216825459067975,0.002303108351398342
20.90999999999989,0.005879227353980362,0.015122181355660295,0.008056957763135336,0.009846094752577554,0.9305440241324335,0.0023229183598669706
20.919999999999888,0.005812106332501989,0.015123250501724176,0.008024045890624321,0.009824132454165493,0.9396853307321905,0.0023431810459054957
20.92999999999989,0.005746982505631707,0.015124106163382505,0.00799383314780101,0.009806684624931264,0.9490982838821768,0.002363877352958137
20.93999999999989,0.00568394615898828,0.015124690224915308,0.007966324665496922,0.009793681190475315,0.9587741907681205,0.0023849873783031894
20.94999999999989,0.005623083467177078,0.015124945132971123,0.007941521877601308,0.009785044138111277,0.968703860454266,0.00240649040175384
20.959999999999887,0.005564476369128951,0.015124814055314136,0.007919422530221822,0.00978068771595642,0.9788776176157086,0.0024283649157418605
20.96999999999989,0.005508202452233694,0.015124241036643046,0.007900020697184058,0.009780518647125352,0.9892853171016279,0.0024505886567148345
20.97999999999989,0.005454334845379452,0.01512317115080399,0.007883306801800195,0.009784436358660425,0.9999163592940501,0.0024731386377721937
20.98999999999989,0.00540294212099123,0.015121550648714045,0.007869267644823666,0.009792333224796274,1.0107597062240252,0.0024959911824613337
20.999999999999886,0.0053540882061424286,0.015119327101313022,0.007857886438491906,0.009804094824120311,1.0218038984047844,0.0025191219596533993
21.009999999999888,0.0053078323027929645,0.015116449536883115,0.007849142846545098,0.009819600210156307,1.0330370723395084,0.002542506019418191
21.01999999999989,0.005264228817187186,0.015112868572129956,0.00784301303009925,0.009838722194863694,1.0444469786596042,0.0025661178298172684
21.029999999999887,0.005223327298425306,0.01510853653650378,0.00783946969925045,0.009861327644510667,1.0560210008478528,0.0025899313145332555
21.039999999999885,0.005185172386204071,0.01510340758934243,0.007838482170292626,0.009887277787345031,1.0677461744998387,0.002613919891252798
21.049999999999887,0.005149803767705997,0.015097437829519427,0.007840016428437653,0.009916428532453544,1.0796092070771306,0.0026380565107219705
21.05999999999989,0.0051172561436019495,0.01509058539735973,0.007844035195927511,0.009948630799168221,1.0915964981069166,0.0026623136963964135
21.069999999999887,0.005087559203119371,0.015082810568635656,0.007850498005422223,0.009983730856347392,1.1036941597849574,0.002686663584613111
21.079999999999885,0.0050607376081188106,0.01507407584048697,0.007859361278537619,0.010021570670831443,1.1158880379414347,0.002711077965215209
21.08999999999989,0.0050368109861159,0.015064346009139236,0.007870578409399327,0.010061988264347703,1.1281637333322787,0.002735528322564851
21.099999999999888,0.00501579393218535,0.01505358823932481,0.007884099853077543,0.010104818078113992,1.1405066232218286,0.002759985876882315
21.10999999999989,0.004997696019686209,0.015041772125329448,0.00789987321877047,0.010149891344364236,1.1529018832263376,0.00278442162585461
21.119999999999884,0.004982521819749665,0.015028869743591416,0.007917843367607643,0.010197036463992037,1.1653345093920757,0.002808806386465049
21.129999999999885,0.004970270929468526,0.01501485569678622,0.007937952514942288,0.010246079389479457,1.1777893404867095,0.002833110837007118
21.139999999999887,0.004960938008720669,0.014999707149360757,0.007960140336992948,0.010296844012248263,1.1902510804881459,0.002857305559258765
21.149999999999885,0.004954512825548679,0.014983403854544114,0.007984344081682925,0.01034915255354001,1.2027043212607664,0.0028813610808047377
21.159999999999883,0.004950980310005747,0.014965928172949054,0.008010498683518047,0.010402825957900368,1.2151335654143753,0.002905247917504036
21.169999999999884,0.004950320616364397,0.014947265082967997,0.008038536882341739,0.010457684288313307,1.2275232493456725,0.0029289366161072763
21.17999999999989,0.004952509193570545,0.014927402183240325,0.008068389345808114,0.010513547122004682,1.2398577664649872,0.002952397797034758
21.189999999999884,0.004957516863811597,0.014906329687517277,0.008099984795412742,0.010570233945914708,1.2521214906121843,0.0029756021973295064
21.19999999999988,0.004965309909054119,0.014884040412283877,0.008133250135913572,0.010627564550826361,1.264298799665514,0.002998520713800507
21.209999999999884,0.004975850165393559,0.014860529757524422,0.008168110587961127,0.01068535942313143,1.276374099346437,0.003021124446370257
21.219999999999885,0.004989095125045785,0.014835795681042487,0.008204489823739003,0.010743440133219848,1.2883318472222436,0.003043384741638165
21.229999999999883,0.005004998045797985,0.014809838666765609,0.008242310105394682,0.010801629719494952,1.3001565769064662,0.00306527323666715
21.23999999999988,0.005023508067724279,0.014782661687475192,0.008281492426018255,0.01085975306704366,1.31183292245467,0.003086761902995172
21.249999999999883,0.005044570336958384,0.014754270162402118,0.008321956652903226,0.010917637280014254,1.3233456429503203,0.0031078230908669793
21.259999999999884,0.005068126136302491,0.014724671910121823,0.008363621672799037,0.010975112046768168,1.3346796472721107,0.003128429573674556
21.26999999999988,0.005094113022439954,0.01469387709717376,0.008406405538840653,0.011032009996879612,1.3458200190303486,0.0031485545925875854
21.27999999999988,0.005122464969510481,0.014661898182821561,0.008450225618820202,0.011088167049061437,1.356752041655747,0.0031681719013471996
21.28999999999988,0.00515311251879966,0.014628749860360677,0.008494998744453258,0.011143422749096658,1.3674612236192856,0.0031872558111867553
21.299999999999883,0.005185982934289476,0.014594448995366004,0.008540641361289516,0.011197620596851103,1.3779333237568103,0.0032057812358323484
21.30999999999988,0.005221000363811719,0.014559014561249086,0.008587069678920298,0.011250608361434883,1.3881543766669489,0.003223723736524002
21.31999999999988,0.005258086005539481,0.014522467572463234,0.008634199821137662,0.011302238383570428,1.3981107181459131,0.0032410595669869363
21.32999999999988,0.005297158279541233,0.01448483101566119,0.008681947975701142,0.011352367864215738,1.4077890106178856,0.003257765718271578
21.339999999999883,0.0053381330041089225,0.014446129779077414,0.008730230543371981,0.011400859138494363,1.4171762685148213,0.0032738199633710148
21.34999999999988,0.00538092357655975,0.014406390580374167,0.008778964285882892,0.011447579934017809,1.4262598835545879,0.0032892009015152573
21.35999999999988,0.00542544115820319,0.014365641893155933,0.00882806647252079,0.011492403612763307,1.4350276498614531,0.003303888002032817
21.36999999999988,0.005471594863159621,0.014323913872324004,0.008877455025006295,0.011535209395781506,1.4434677888680372,0.003317861647661358
21.37999999999988,0.0055192919507128105,0.014281238278415438,0.00892704866035653,0.011575882570136047,1.4515689739329984,0.003331103177180002
21.38999999999988,0.005568438020873186,0.014237648401046523,0.008976767031418594,0.011614314677609,1.4593203546038653,0.0033435949272258543
21.39999999999988,0.005618937212820383,0.014193178981556535,0.009026530864759746,0.01165040368482964,1.466711580449562,0.003355320273146951
21.40999999999988,0.005670692405881769,0.014147866134924372,0.009076262095595762,0.011684054134580098,1.4737328243824124,0.00336626366873355
21.41999999999988,0.005723605422690494,0.014101747271011529,0.009125883999434294,0.011715177278095843,1.4803748053846537,0.0033764106846591977
21.42999999999988,0.005777577234154004,0.014054861015170842,0.00917532132011236,0.011743691188227908,1.4866288105497187,0.0033857480454518012
21.43999999999988,0.005832508165851752,0.014007247128248024,0.009224500393918155,0.011769520853381833,1.492486716343748,0.0033942636648030527
21.44999999999988,0.00588829810546768,0.013958946425991712,0.009273349269502502,0.011792598252198404,1.497941008988154,0.003401946679013065
21.45999999999988,0.005944846710848141,0.013910000697881056,0.009321797823303151,0.011812862408995525,1.5029848038598788,0.0034087874783579244
21.46999999999988,0.006002053618259578,0.013860452625379957,0.009369777870231901,0.011830259430052835,1.5076118638025966,0.0034147777361637865
21.47999999999988,0.0060598186504032025,0.013810345699633549,0.009417223269412417,0.011844742520887243,1.5118166162398585,0.0034199104353743203
21.48999999999988,0.006118042023727054,0.013759724138638397,0.00946407002479485,0.0118562719847266,1.5155941689807635,0.003424179892409202
21.49999999999988,0.006176624554560498,0.013708632803948888,0.009510256380498287,0.0118648152024399,1.5189403246111326,0.0034275817781284712
21.50999999999988,0.006235467863582694,0.013657117117027577,0.009555722910740057,0.011870346594245839,1.5218515933691208,0.0034301131357388267
21.519999999999875,0.006294474578124064,0.013605222975394645,0.009600412604209381,0.011872847563617447,1.5243252044134785,0.003431772395501847
21.52999999999988,0.006353548531787341,0.013552996668764559,0.009644270942737948,0.011872306423925469,1.5263591154040532,0.0034325593861291885
21.53999999999988,0.006412594960862499,0.013500484795368499,0.009687245974113867,0.011868718308489876,1.527952020326094,0.0034324753427733604
21.54999999999988,0.006471520696998616,0.013447734178655631,0.00972928837888108,0.011862085064807853,1.5291033555009084,0.003431522911541967
21.559999999999874,0.0065302343555863705,0.013394791784554397,0.00977035153096595,0.011852415133784319,1.5298133037342803,0.0034297061504771974
21.56999999999988,0.006588646519296914,0.013341704639459308,0.009810391551972822,0.011839723414814126,1.5300827965604795,0.003427030526952181
21.57999999999988,0.006646669916215328,0.013288519749086639,0.009849367358986564,0.01182403111756463,1.5299135145445402,0.0034235029114442683
21.58999999999988,0.006704219592000951,0.01323528401831495,0.009887240705719022,0.011805365601290878,1.529307885610225,0.0034191315676551245
21.599999999999877,0.006761213075508558,0.01318204417209949,0.009923976216853531,0.011783760202489542,1.528269081366933,0.0034139261389599424
21.609999999999875,0.0068175705373195936,0.013128846677529817,0.00995954141548379,0.011759254051671575,1.5268010114159651,0.0034078976311821955
21.61999999999988,0.006873214940658899,0.01307573766708979,0.009993906743597831,0.011731891880013839,1.5249083156245382,0.003401058391703927
21.629999999999875,0.006928072184198732,0.013022762863174542,0.01002704557560451,0.011701723816637833,1.5225963543645311,0.003393422084933606
21.639999999999876,0.006982071236270742,0.012969967503915717,0.010058934224929945,0.011668805177255747,1.5198711967223189,0.0033850036641651436
21.649999999999874,0.007035144260019368,0.012917396270365939,0.010089551943730669,0.011633196244917723,1.5167396066962058,0.0033758193398741804
21.65999999999988,0.007087226729041877,0.012865093215105405,0.010118880915788853,0.011594962043588302,1.5132090274083205,0.003365886544511803
21.669999999999877,0.007138257533073743,0.012813101692363042,0.01014690624267811,0.011554172105273763,1.5092875633681528,0.0033552238938718503
21.679999999999872,0.007188179073292821,0.012761464289783832,0.010173615923317083,0.01151090023141464,1.504983960836008,0.003343851145126824
21.689999999999877,0.007236937346828248,0.012710222762004024,0.010199000827061029,0.011465224249248979,1.5003075863472746,0.0033317891516494768
21.699999999999875,0.007284482020071307,0.012659417966202608,0.010223054660513483,0.011417225763843368,1.49526840347193,0.003319059814760555
21.709999999999877,0.007330766490411192,0.012609089799782428,0.010245773928263827,0.011366989906481705,1.4898769478965523,0.003305686032564637
21.71999999999987,0.0073757479360850465,0.012559277140308883,0.010267157887770538,0.011314605080095762,1.4841443009271118,0.0032916916460536804
21.729999999999876,0.007419387353947964,0.012510017787806426,0.01028720849861933,0.011260162702412379,1.4780820615197812,0.0032771013826728068
21.739999999999878,0.007461649585108874,0.012461348409485467,0.010305930366394184,0.011203756947476792,1.4717023169544934,0.0032619407975571306
21.749999999999872,0.007502503328500355,0.01241330448694713,0.010323330681405455,0.011145484486192526,1.465017612272569,0.0032462362126625247
21.75999999999987,0.0075419211425353065,0.012365920265895539,0.010339419152520362,0.011085444226500027,1.4580409186055783,0.003230014654026087
21.76999999999987,0.00757987943506054,0.012319228708381369,0.010354207936338107,0.011023737053801441,1.4507856005270634,0.0032133037874020483
21.779999999999877,0.007616358441863889,0.012273261447603954,0.010367711561948023,0.010960465572226314,1.443265382561028,0.003196131852524795
21.78999999999987,0.007651342194035737,0.012228048745303238,0.010379946851506373,0.01089573384731995,1.4354943149812665,0.003178527596252665
21.79999999999987,0.0076848184745289,0.012183619451771004,0.010390932836864498,0.01082964715072171,1.4274867390343253,0.0031605202048452232
21.80999999999987,0.0077167787643011975,0.012140000968505137,0.010400690672472986,0.010762311707382696,1.419257251716499,0.0031421392356231646
21.819999999999872,0.007747218178462036,0.012097219213526347,0.010409243544772748,0.010693834445849367,1.4108206702317376,0.003123414548253652
21.82999999999987,0.007776135392878895,0.012055298589373879,0.010416616578269963,0.010624322752112763,1.4021919962529126,0.0031043762358955113
21.83999999999987,0.007803532561734003,0.012014261953791868,0.010422836738484773,0.010553884227494401,1.3933863801039674,0.003085054556429568
21.84999999999987,0.007829415226557527,0.011974130593113004,0.01042793273196573,0.010482626451010833,1.3844190849755018,0.003065479863990231
21.85999999999987,0.007853792217298169,0.011934924198346469,0.010431934903571694,0.010410656746628206,1.3753054512813216,0.0030456825410049605
21.86999999999987,0.007876675546015646,0.011896660843984531,0.010434875131239705,0.010338081955787221,1.36606086125848,0.0030256929309383602
21.879999999999868,0.007898080293785048,0.01185935696955245,0.010436786718482664,0.010265008215551406,1.356700703908325,0.0030055412719277104
21.88999999999987,0.007918024491392424,0.011823027363936617,0.010437704284890117,0.010191540742711195,1.3472403403712068,0.002985257631487492
21.89999999999987,0.00793652899438208,0.011787685152535329,0.010437663654929109,0.01011778362416118,1.3376950698228578,0.0029648718424517017
21.90999999999987,0.007953617352996644,0.011753341787285928,0.010436701745354758,0.01004383961385373,1.328080095976035,0.002944413440313773
21.919999999999867,0.007969315677534073,0.011720007039632219,0.010434856451546742,0.009969809936616579,1.3184104942666668,0.0029239116021143115
21.92999999999987,0.007983652499632166,0.011687688996507496,0.010432166533092911,0.009895794099105707,1.3087011797994685,0.0029033950870171244
21.93999999999987,0.007996658629981534,0.011656394059418387,0.010428671498942702,0.009821889708148982,1.2989668761238398,0.0028828921787048475
21.949999999999868,0.008008367012964347,0.011626126946718674,0.010424411492448679,0.00974819229672128,1.2892220849068852,0.002862430629716985
21.959999999999862,0.008018812578717935,0.01159689069915851,0.010419427176607907,0.009674795157779501,1.2794810565666608,0.002842037607845041
21.969999999999867,0.00802803209312421,0.01156868668878528,0.010413759619809417,0.009601789186173633,1.2697577619252296,0.002821739644691337
21.97999999999987,0.008036064006222953,0.011541514631260921,0.010407450182389519,0.009529262728832536,1.2600658649377776,0.002801562586490034
21.989999999999867,0.00804294829954009,0.011515372601649657,0.01040054040429352,0.009457301443397985,1.2504186965507766,0.0027815315472807657
21.999999999999865,0.008048726332815025,0.011490257053719385,0.010393071894143237,0.009385988165450715,1.2408292297387886,0.002761670864517115
22.009999999999867,0.008053440690603887,0.011466162842784875,0.010385086220014692,0.009315402784443238,1.2313100557659173,0.002742004057183915
22.019999999999868,0.008057135029224711,0.01144308325209813,0.01037662480223292,0.009245622128428596,1.2218733617142123,0.002722553786489005
22.029999999999863,0.008059853924493772,0.011421010022763306,0.010367728808483441,0.009176719857652373,1.2125309093176846,0.002703341819186992
22.039999999999864,0.008061642720680736,0.011399933387126642,0.01035843905152282,0.009108766367056362,1.2032940151371587,0.0026843889935853054
22.049999999999866,0.008062547381087158,0.011379842105572732,0.010348795889750297,0.009041828697726576,1.19417353210797,0.0026657151882768402
22.059999999999867,0.008062614340630865,0.01136072350665071,0.01033883913088533,0.008975970457305823,1.1851798324894574,0.0026473392936383093
22.069999999999865,0.008061890360798898,0.011342563530458621,0.010328607938983244,0.00891125174938149,1.1763227922422652,0.0026292791861285006
22.079999999999863,0.008060422387313857,0.011325346775227497,0.010318140745008846,0.008847729111850668,1.1676117768565046,0.0026115517054152914
22.089999999999865,0.008058257410843529,0.011309056547060015,0.010307475161171406,0.00878545546425487,1.1590556286506681,0.002594172634354275
22.099999999999863,0.008055442331073,0.011293674912780518,0.010296647899206474,0.008724480064063534,1.1506626555578474,0.0025771566818356714
22.109999999999864,0.00805202382445121,0.011279182755838809,0.010285694692777956,0.008664848471870056,1.1424406214124978,0.0025605174685102727
22.119999999999862,0.00804804821591593,0.011265559835183361,0.010274650224170827,0.008606602525448885,1.134396737747946,0.00254426751539981
22.129999999999864,0.008043561354888588,0.011252784846990436,0.01026354805544473,0.008549780322609269,1.1265376571121581,0.002528418235392552
22.139999999999866,0.008038608495812222,0.011240835489111263,0.010252420564212654,0.008494416212770296,1.1188694679067384,0.0025129799276207773
22.149999999999864,0.008033234183484462,0.011229688528082428,0.010241298884193494,0.00844054079717158,1.11139769075135,0.0024979617747123615
22.15999999999986,0.008027482143415976,0.011219319868533627,0.010230212850666462,0.008388180937624104,1.1041272763726546,0.0024833718429039696
22.169999999999863,0.008021395177423903,0.011209704624820791,0.010219190950934121,0.008337359773696661,1.0970626050136296,0.002469217084998866
22.179999999999865,0.008015015064649314,0.011200817194711579,0.010208260279881056,0.008288096748226559,1.0902074873559122,0.002455503346148285
22.189999999999863,0.008008382468167641,0.011192631334951958,0.010197446500698896,0.008240407641039447,1.0835651669445852,0.002442235372431359
22.19999999999986,0.008001536847342531,0.011185120238540056,0.010186773810838412,0.00819430461075927,1.0771383241015096,0.0024294168222044024
22.209999999999862,0.007994516376057187,0.01117825661351955,0.010176264913246705,0.008149796244578624,1.0709290813099348,0.002417050280185487
22.219999999999864,0.007987357866942104,0.011172012763080183,0.010165940992948291,0.008106887615841076,1.0649390100497311,0.0024051372742343443
22.229999999999865,0.007980096701703592,0.011166360666723678,0.010155821699025874,0.008065580349265905,1.059169139059152,0.002393678294780556
22.23999999999986,0.007972766767644678,0.011161272062226384,0.010145925132044747,0.008025872693628677,1.0536199639954975,0.0023826728168449196
22.24999999999986,0.007965400400460182,0.011156718528113382,0.010136267836945923,0.007987759601699963,1.048291458463415,0.002372119324590281
22.259999999999863,0.007958028333380591,0.011152671566362946,0.010126864801413874,0.007951232817236102,1.0431830863759322,0.0023620153383292846
22.26999999999986,0.00795067965273214,0.011149102685087507,0.010117729459708775,0.007916280968807306,1.0382938156097343,0.0023523574439078903
22.27999999999986,0.007943381759971868,0.011145983480972463,0.010108873701938033,0.007882889670239023,1.0336221329127193,0.0023431413243757953
22.28999999999986,0.007936160340247495,0.01114328572127561,0.010100307888722864,0.00785104162743289,1.0291660600185144,0.00233436179384854
22.299999999999866,0.007929039337523165,0.011140981425189263,0.010092040871191312,0.00782071675132361,1.0249231709194087,0.0023260128334608005
22.30999999999986,0.007922040936301628,0.011139042944350157,0.01008408001619999,0.007791892276716756,1.0208906102459372,0.0023180876293052736
22.319999999999855,0.007915185549959038,0.011137443042257826,0.010076431236654857,0.007764542886739532,1.0170651126980301,0.002310578612246022
22.32999999999986,0.007908491815689164,0.011136154972335414,0.010069099026767628,0.007738640842622567,1.0134430234691725,0.002303477499489063
22.33999999999986,0.007901976596029769,0.011135152554339332,0.010062086502050009,0.007714156118516156,1.0100203196014395,0.0022967753377863232
22.34999999999986,0.00789565498691637,0.011134410248795495,0.01005539544381427,0.007691056541027721,1.0067926322055696,0.0022904625481419455
22.359999999999857,0.007889540332180306,0.011133903229108549,0.010049026347915945,0.007669307933148134,1.003755269476426,0.0022845289718825667
22.36999999999986,0.007883644244381814,0.011133607450956042,0.010042978477442304,0.0076488742622125225,1.0009032404303433,0.002278963917945957
22.37999999999986,0.007877976631846658,0.011133499718543941,0.010037249919017829,0.007629717791516822,0.9982312792870547,0.002273756211235312
22.38999999999986,0.007872545731756686,0.011133557747265944,0.010031837642366974,0.007611799235185533,0.995733870415201,0.002268894241879426
22.399999999999856,0.007867358149128206,0.01113376022228016,0.010026737562748893,0.007595077915860197,0.9934052737568038,0.0022643660152318803
22.409999999999854,0.007862418901494566,0.011134086852494032,0.010021944605863175,0.007579511924752823,0.9912395506425656,0.002260159202435438
22.41999999999986,0.007857731469089382,0.011134518419431737,0.010017452774821564,0.007565058283584047,0.9892305899065142,0.002256261191371184
22.429999999999858,0.00785329785030486,0.011135036820446297,0.010013255218784394,0.007551673107902186,0.9873721342054828,0.002252659137805977
22.439999999999856,0.007849118622176713,0.011135625105735044,0.010009344302866967,0.007539311771256691,0.9856578064463286,0.0022493400165468436
22.449999999999857,0.007845193005624015,0.011136267508634537,0.01000571167893067,0.00752792906967843,0.9840811362215299,0.002246290672407009
22.45999999999986,0.007841518935150045,0.011136949468723277,0.010002348356888584,0.0075174793858996765,0.9826355861516314,0.002243497870784531
22.469999999999857,0.007838093132689785,0.011137657647347617,0.009999244776175796,0.007507916852730444,0.9813145780307406,0.0022409483476503434
22.47999999999985,0.00783491118527112,0.011138379935289542,0.009996390877060068,0.0074991955149979195,0.9801115186688565,0.002238628858738255
22.489999999999856,0.007831967626137928,0.011139105452393785,0.009993776171499564,0.007491269489453536,0.9790198253223015,0.002236526227725732
22.499999999999854,0.007829256018962595,0.011139824539060652,0.009991389813289734,0.007484093122054258,0.9780329506011262,0.002234627393191582
22.509999999999856,0.00782676904475317,0.011140528739596589,0.009989220667274878,0.007477621142026966,0.9771444067405103,0.002232919454135246
22.51999999999985,0.007824498591039468,0.011141210777499582,0.009987257377423864,0.007471808812126933,0.9763477891224844,0.002231389713843282
22.529999999999852,0.007822435842904216,0.011141864522836874,0.009985488433582112,0.007466612074504842,0.9756367989351145,0.0022300257218928416
22.539999999999857,0.007820571375409325,0.011142484951951484,0.009983902236717399,0.007461987691600719,0.9750052648587398,0.002228815314089852
22.54999999999985,0.007818895246950654,0.011143068099821293,0.009982487162480036,0.007457893381485355,0.974447163672885,0.0022277466501505858
22.559999999999853,0.007817397093056597,0.01114361100549114,0.009981231622900636,0.007454287947071436,0.9739566396826269,0.002226808248948172
22.56999999999985,0.007816066220127838,0.011144111651089401,0.00998012412605134,0.007451131398623441,0.9735280228686339,0.0022259890211589676
22.579999999999856,0.007814891698599441,0.011144568895011994,0.009979153333497312,0.007448385069009286,0.9731558456700803,0.0022252782991561662
22.58999999999985,0.007813862454992722,0.011144982399908165,0.009978308115361226,0.007446011721152026,0.972834858314198,0.00222466586400889
22.59999999999985,0.007812967362314337,0.011145352556146461,0.009977577602813469,0.007443975647151288,0.9725600426113215,0.0022241419694556987
22.609999999999854,0.007812195328256556,0.011145680401495724,0.009976951237788747,0.007442242758553921,0.972326624141417,0.002223697362735156
22.619999999999852,0.007811535380654995,0.011145967537836324,0.009976418819721002,0.0074407806672650185,0.9721300827680087,0.002223323302174998
22.629999999999853,0.007810976749662283,0.01114621604581131,0.009975970549085854,0.007439558756598875,0.9719661614272258,0.002223011571464328
22.63999999999985,0.007810508946092323,0.011146428398414145,0.009975597067540077,0.007438548241968873,0.9718308731518333,0.002222754490556758
22.649999999999853,0.007810121835379192,0.01114660737457932,0.009975289494444364,0.007437722220709891,0.9717205063012953,0.0022225449231734144
22.65999999999985,0.007809805706579116,0.011146755973900418,0.00997503945954479,0.007437055710527082,0.971631627978376,0.002222376280891484
22.66999999999985,0.0078095513358251165,0.011146877333651621,0.009974839131573394,0.007436525676075067,0.971561085620067,0.0022222425238166057
