time,LGLTMED,LRF,LADDLONG,LBF,LTA,LGM
1.578,0.0006028163312596081,0.02314052544657331,0.0002287214178966522,0.00030125608341640206,0.2463517675720207,0.0005189685076897923
1.579,0.00041648661904940005,0.02197224863138747,0.0003507756767733649,3.8395791852502325e-05,0.26115417137709823,0.0005451702764224372
1.5799999999999998,0.00023026432063213585,0.020814847843827616,0.0004725815426286308,0.00022209263562764092,0.27596125834572416,0.0005714021383052474
1.5809999999999995,4.426462013727388e-05,0.019668989987330146,0.0005940630947276307,0.00048004328177601033,0.2907631484216243,0.0005976471650299285
1.5819999999999996,0.00014139691244457965,0.01853532642683415,0.0007151448545397394,0.0007352936720143149,0.3055499775656379,0.0006238884608122272
1.5829999999999995,0.00032660444844142666,0.017414492089156807,0.0008357519028426421,0.0009876850403069857,0.32031191515322427,0.0006501091934958246
1.5839999999999994,0.0005112420281541738,0.016307104599239362,0.0009558099956419589,0.0012370625883213447,0.33503918136729854,0.0006762926256080762
1.5849999999999993,0.0006951936888220022,0.01521376345423914,0.001075245678559086,0.0014832757371232457,0.34972206452690713,0.0007024221452527356
1.5859999999999992,0.000878343592737266,0.014135049237226723,0.0011939863993677615,0.0017261783706775796,0.3643509382930542,0.0007284812967283931
1.586999999999999,0.0010605761553554025,0.013071522872061928,0.0013119606183917434,0.0019656290704443487,0.37891627869497485,0.0007544538107634468
1.587999999999999,0.0012417761732460787,0.012023724920864523,0.0014290979165053406,0.0022014913403951403,0.3934086809238324,0.0007803236342657842
1.5889999999999989,0.0014218289517351815,0.010992174925348932,0.0015453291005046547,0.0024336338218077453,0.4078188758457249,0.0008060749594923774
1.5899999999999987,0.0016006204320892761,0.009977370793127617,0.001660586305634113,0.002661930497224376,0.4221377461909384,0.0008316922525546277
1.5909999999999986,0.001778037318097986,0.008979788229919253,0.0017748030950611295,0.0028862608829821573,0.4363563423806673,0.0008571602811831433
1.5919999999999983,0.00195396720191658,0.007999880218433841,0.0018879145561016544,0.0031065102097507648,0.4504658979556359,0.0008824641416835206
1.5929999999999984,0.0021282986890364926,0.00703807654456331,0.00199985739300933,0.0033225695905441796,0.4644578445734947,0.0009075892850190742
1.5939999999999983,0.0023009215222577514,0.00609478337136565,0.0021105700161545868,0.0035343361757054817,0.47832382654383987,0.0009325215419607561
1.5949999999999982,0.0024717267045437853,0.005170382861163303,0.002219992627435342,0.0037417132943924434,0.4920557148711289,0.0009572471472455226
1.595999999999998,0.0026406066206469017,0.004265232845863137,0.002328067301777525,0.003944610582123457,0.5056456207763645,0.0009817527626851015
1.596999999999998,0.002807455157399743,0.0033796665453660127,0.0024347380645961037,0.00414294409398424,0.519085908668278,0.0010060254991669142
1.597999999999998,0.002972167822574412,0.0025139923337245667,0.0025399509650966745,0.004336636403159296,0.532369208534158,0.0010300529374909434
1.5989999999999978,0.0031346418622106784,0.0016684935525673455,0.002643654145304387,0.0045256166845475424,0.5454884277195619,0.0010538231479873222
1.5999999999999976,0.0032947763763157235,0.0008434283712259389,0.0027457979047185855,0.004709820783340194,0.5584367620648966,0.001077324708863101
1.6009999999999975,0.003452472432834467,3.9029692943511967e-05,0.002846334760511536,0.004889191268554671,0.5712077063655054,0.0011005467232261931
1.6019999999999974,0.003607633179789746,0.0007444948935215733,0.002945219503210855,0.005063677471607849,0.5837950641211402,0.0011234788347361834
1.602999999999997,0.0037601639554865245,0.001506963117664332,0.003042409247819018,0.005233235510087045,0.5961929565416142,0.0011461112418353141
1.6039999999999972,0.0039099723966709845,0.00224821798722969,0.0031378634803319117,0.005397828296945645,0.6083958307785311,0.0011684347105168145
1.604999999999997,0.004056968544525552,0.0029681277053729724,0.0032315440996184643,0.005557425535419695,0.6203984673576344,0.0011904405855974172
1.605999999999997,0.004201064948375178,0.0036665855459860563,0.003323415454620852,0.005712003700014433,0.6321959867911674,0.0012121208004676983
1.6069999999999969,0.0043421767669706846,0.004343509688246151,0.0034134443768332034,0.005861546003945004,0.643783855353784,0.0012334678853020524
1.6079999999999968,0.004480221867211201,0.004998843011498799,0.00350160020801418,0.006006042353442685,0.6551578900091506,0.0012544749737151385
1.6089999999999969,0.004615120920157569,0.005632552851642344,0.0035878548230904995,0.006145489289367746,0.6663142624778998,0.0012751358078579686
1.6099999999999963,0.0047467974941818245,0.006244630720221859,0.003672182648215518,0.006279889916606228,0.6772495024411874,0.001295444741950905
1.6109999999999964,0.004875178145086915,0.006835091987465744,0.0037545606739601877,0.006409253821755511,0.687960499877441,0.001315396744256013
1.6119999999999963,0.0050001925030195024,0.0074039755305113555,0.003834968463630046,0.006533596979619254,0.6984445065325154,0.0013349873974962962
1.6129999999999962,0.005121773355992799,0.007951343348084648,0.00391338815672038,0.00665294164903825,0.7086991365253849,0.0013542128977331335
1.613999999999996,0.005239856729829513,0.008477280142941204,0.003989804467532297,0.006767316258581816,0.7187223660933499,0.001373070051719413
1.614999999999996,0.005354381964336646,0.008981892873431072,0.004064204678979826,0.006876755282627024,0.7285125324833084,0.0013915562727527691
1.615999999999996,0.005465291785528091,0.009465310275608013,0.004136578631624014,0.006981299108353987,0.738068331998995,0.0014096695750615822
1.6169999999999958,0.005572532373716659,0.009927682357343403,0.004206918707982147,0.007080993894189544,0.7473888172174938,0.001427408566761223
1.6179999999999957,0.005676053427299591,0.010369179865925277,0.004275219812182339,0.007175891420234747,0.7564733933908132,0.001444772441424038
1.6189999999999956,0.005775808222059672,0.010789993730634275,0.00434147934506166,0.0072660489312092675,0.7653218140498232,0.0014617609683065262
1.6199999999999954,0.005871753665801783,0.011190334481793598,0.004405697174836301,0.007351528972440241,0.773934175829034,0.0014783744812797356
1.6209999999999951,0.005963850348143983,0.011570431647793679,0.004467875603492901,0.0074323992194110095,0.7823109125322034,0.001494613866509478
1.6219999999999952,0.006052062585293032,0.011930533131592697,0.004528019329058751,0.007508732301372867,0.790452788460543,0.0015104805489359464
1.6229999999999951,0.006136358459651182,0.012270904568185633,0.004586135403910305,0.007580605619510473,0.7983608910267916,0.0015259764776010527
1.623999999999995,0.006216709854119224,0.012591828664514297,0.004642233189274152,0.007648101160137409,0.8060366226794147,0.0015411041098730683
1.624999999999995,0.00629309248097884,0.012893604523265751,0.004696324306077896,0.007711305303378992,0.8134816921623034,0.001555866394618191
1.6259999999999948,0.006365485905251786,0.0131765469519777,0.004748422582310481,0.007770308627778239,0.8206981051374231,0.0015702667543698102
1.626999999999995,0.006433873562457007,0.013440985758846164,0.004798543997060821,0.007825205711240181,0.8276881542007054,0.0015843090665505718
1.6279999999999946,0.006498242770718882,0.013687265036606005,0.004846706621404591,0.007876094928717187,0.8344544083240443,0.0015979976438047533
1.6289999999999945,0.006558584737220801,0.013915742435838378,0.004892930556308209,0.00792307824702918,0.840999701757967,0.0016113372135007171
1.6299999999999943,0.00661489455902928,0.014126788429043555,0.004937237867715273,0.007966261017212426,0.8473271224304033,0.0016243328964641384
1.6309999999999942,0.006667171218330941,0.014320785566809715,0.004979652518980705,0.008005751764787992,0.8534399998773659,0.0016369901850047184
1.631999999999994,0.006715417572133643,0.014498127727399017,0.005020200300819498,0.008041661978337286,0.8593418927414562,0.0016493149202988372
1.632999999999994,0.006759640336484656,0.014659219361064466,0.00505890875894132,0.008074105896759654,0.8650365758742624,0.0016613132691930235
1.633999999999994,0.006799850065260968,0.014804474730390097,0.005095807119542988,0.008103200295570092,0.8705280270789937,0.0016729917004916785
1.6349999999999938,0.006836061123587803,0.014934317147917103,0.005130926212831538,0.008129064272572643,0.8758204135301825,0.0016843569607948663
1.6359999999999937,0.006868291655950835,0.015049178212283021,0.005164298394752211,0.008151819033222247,0.8809180779081992,0.0016954160499517814
1.6369999999999936,0.006896563549093107,0.015149497044068264,0.005195957467096355,0.008171587675967318,0.8858255242880236,0.0017061761961996657
1.6379999999999937,0.006920902389813823,0.01523571952252333,0.005225938596169503,0.008188494977845115,0.8905474038240414,0.0017166448310609397
1.6389999999999934,0.0069413374178135,0.0153082975243389,0.005254278230200302,0.008202667180589296,0.8950885002748296,0.0017268295640749847
1.6399999999999932,0.006957901473750261,0.015367688165610165,0.005281014015671004,0.00821423177749562,0.8994537154130242,0.0017367381574412669
1.6409999999999931,0.006970630942695189,0.015414353048123322,0.005306184712749004,0.008223317301286932,0.9036480543652059,0.0017463785006492922
1.641999999999993,0.006979565693192414,0.015448757511064079,0.005329830109999021,0.008230053113216344,0.9076766109257066,0.0017557585851693937
1.642999999999993,0.0069847490121386895,0.015471369889216522,0.005351990938559789,0.008234569193650077,0.9115445528869527,0.001764886479275259
1.6439999999999928,0.006986227535691501,0.015482660778693112,0.005372708785976199,0.00823699593436936,0.9152571074276381,0.001773770303067904
1.6449999999999927,0.006984051176408266,0.015483102311219722,0.005392026009884775,0.008237463932822585,0.9188195465987021,0.0017824182037690238
1.6459999999999926,0.0069782730468088625,0.015473167437990949,0.005409985651753961,0.008236103788541603,0.9222371729454956,0.0017908383313488393
1.6469999999999925,0.006968949379548728,0.015453329224104013,0.00542663135087638,0.008233045901916255,0.9255153053024174,0.001799038814550655
1.6479999999999924,0.006956139444379799,0.015424060154571054,0.005442007258801457,0.008228420275503589,0.9286592647938984,0.0018070277373696438
1.6489999999999922,0.00693990546206646,0.015385831452883645,0.005456157954383525,0.008222356318032536,0.9316743610730904,0.0018148131160383378
1.649999999999992,0.006920312515412948,0.015339112413068453,0.0054691283596067205,0.008214982651253299,0.9345658788270772,0.0018224028765673164
1.650999999999992,0.006897428457547422,0.015284369746130707,0.005480963656335166,0.008206426919776222,0.9373390645747223,0.0018298048328832237
1.651999999999992,0.006871323817604798,0.01522206694174384,0.005491709204124606,0.008196815604044396,0.9399991137803758,0.0018370266656034479
1.6529999999999918,0.0068420717039487,0.015152663646002033,0.005501410459222539,0.008186273836589843,0.9425511583037293,0.0018440759014803224
1.6539999999999917,0.006809747705078181,0.015076615056013102,0.005510112894872494,0.008174925221721467,0.9450002542032245,0.001850959893544121
1.6549999999999916,0.006774429788367196,0.01499437133206249,0.005517861923028349,0.008162891658792864,0.9473513699075171,0.0018576858019685105
1.6559999999999917,0.006736198196781593,0.014906377028037189,0.005524702817576606,0.008150293169195721,0.9496093747664945,0.0018642605756771034
1.6569999999999914,0.0066951353437073105,0.01481307054075226,0.00553068063915397,0.008137247727222364,0.9517790279903349,0.0018706909347036994
1.6579999999999913,0.006651325706009055,0.014714883578779241,0.005535840161640805,0.008123871094935781,0.9538649679824037,0.0018769833533139437
1.6589999999999911,0.00660485571542021,0.01461224065133038,0.005540225800402361,0.00811027666117661,0.9558717020699864,0.0018831440438913819
1.659999999999991,0.006555813648352078,0.014505558577709656,0.005543881542348452,0.008096575284823822,0.9578035966366754,0.0018891789415922495
1.660999999999991,0.00650428951420024,0.01439524601780501,0.005546850877884196,0.00808287514241113,0.9596648676617924,0.0018950936897730397
1.6619999999999908,0.006450374942225324,0.014281703024065326,0.005549176734827614,0.008069281580190645,0.9614595716750671,0.0019008936262012311
1.6629999999999907,0.006394163067085915,0.014165320615377163,0.005550901414371136,0.008055896970737027,0.9631915971380302,0.0019065837700651216
1.6639999999999906,0.006335748413106623,0.014046480373221966,0.005552066529160109,0.00804282057419808,0.9648646562666233,0.0019121688098036544
1.6649999999999905,0.006275226777368633,0.013925554060457467,0.005552712943554437,0.008030148404316173,0.9664822773120205,0.001917653091782801
1.6659999999999904,0.006212695111713652,0.013802903263028321,0.005552880716142032,0.008017973099362379,0.9680477973184733,0.0019230406098475375
1.6669999999999905,0.006148251403755117,0.013678879054878145,0.005552609044578876,0.008006383798138339,0.9695643553783404,0.0019283349957810337
1.6679999999999902,0.006081994556991383,0.013553821686300795,0.0055519362128432686,0.007995466021210663,0.9710348864055542,0.0019335395107046346
1.66899999999999,0.006014024270119225,0.013428060295939511,0.005550899540995137,0.007985301557547748,0.9724621154497023,0.0019386570374530386
1.66999999999999,0.005944440915647751,0.013301912646608198,0.005549535337527317,0.007975968356729764,0.9738485525732857,0.0019436900739595879
1.6709999999999898,0.0058733454179151125,0.013175684885073905,0.005547878854385278,0.007967540426894371,0.9751964883142015,0.001948640727686576
1.6719999999999895,0.005800839130613457,0.01304967132590186,0.00554596424472573,0.007960087738570076,0.9765079897540965,0.0019535107111325876
1.6729999999999896,0.005727023713932965,0.012924154259425528,0.0055438245234769356,0.007953676134535327,0.9777848972112624,0.001958301338447718
1.6739999999999895,0.0056520010114483755,0.012799403783865779,0.005541491530763561,0.007948367245833492,0.9790288215743611,0.0019630135231842806
1.6749999999999894,0.00557587292688843,0.012675677661583246,0.005538995898256796,0.007944218414066243,0.9802411422905056,0.0019676477772050237
1.6759999999999893,0.0054987413009486156,0.012553221199409364,0.0055363670185148385,0.007941282620080098,0.9814230060181883,0.001972204210768316
1.6769999999999892,0.005420707788330197,0.012432267152964322,0.005533633017379337,0.007939608419148718,0.9825753259524825,0.0019766825338017532
1.677999999999989,0.005341873735210009,0.012313035654835136,0.00553082072949258,0.007939239882745116,0.9836987818269337,0.0019810820583727995
1.678999999999989,0.005262340057361255,0.012195734166451698,0.005527955676992629,0.007940216546995876,0.9847938205936829,0.0019854017023571697
1.6799999999999888,0.005182207119153824,0.012080557453467672,0.0055250620514357305,0.00794257336792269,0.9858606577806289,0.0019896399943029426
1.6809999999999887,0.005101574613664117,0.011967687584416357,0.005522162698986916,0.007946340683603408,0.9868992795217683,0.0019937950794828023
1.6819999999999886,0.005020541444117387,0.011857293952374962,0.005519279108909909,0.007951544183413432,0.987909445254121,0.00199786472712264
1.6829999999999885,0.0049392056068756005,0.011749533319329217,0.005516431405377222,0.007958204884529472,0.9888906910719668,0.002001846338791428
1.6839999999999884,0.0048576640761709014,0.011644549882890966,0.005513638342611357,0.007966339115885308,0.9898423337267332,0.002005736957932989
1.6849999999999885,0.00477601269077407,0.011542475364980024,0.0055109173033603,0.007975958509768167,0.9907634752589948,0.002009533280517309
1.6859999999999882,0.0046943460427784495,0.011443429122042832,0.005508284300702563,0.007987070001245598,0.991653008247678,0.002013231666784978
1.686999999999988,0.0046127573686740395,0.011347518276339598,0.005505753983165473,0.007999675835606996,0.9925096216608432,0.0020168281540548796
1.687999999999988,0.004531338442883209,0.011254837867791793,0.005503339643123957,0.008013773583999127,0.9933318072922368,0.0020203184705639096
1.6889999999999878,0.004450179473932634,0.01116547102584116,0.00550105322843069,0.008029356167415984,0.9941178667679081,0.0020236980503049807
1.6899999999999875,0.004369369003437829,0.011079489160730885,0.005498905357207914,0.008046411889184753,0.9948659191072825,0.0020269620488309187
1.6909999999999876,0.004288993808077447,0.010996952173580023,0.005496905335715457,0.008064924476061202,0.9955739088230892,0.0020301053599898135
1.6919999999999875,0.004209138804731058,0.010917908684585486,0.005495061179191191,0.008084873128023801,0.9962396145444451,0.0020331226335582406
1.6929999999999874,0.004129886958950157,0.010842396278653408,0.005493379635546721,0.008106232576831069,0.9968606581469192,0.0020360082937370214
1.6939999999999873,0.004051319196922096,0.010770441767736342,0.005491866211785253,0.008128973153385493,0.9974345143723017,0.002038756558471719
1.6949999999999872,0.003973514321074987,0.010702061469131207,0.0054905252029979704,0.008153060863935106,0.9979585209189145,0.0020413614595561342
1.695999999999987,0.0038965489294588013,0.01063726149897139,0.005489359723783932,0.00817845747512654,0.9984298889807236,0.0020438168634726063
1.696999999999987,0.003820497339022136,0.01057603808011933,0.0054883717419266865,0.008205120607906242,0.9988457142105345,0.002046116492915204
1.6979999999999869,0.0037454315128914468,0.010518377863634971,0.005487562114152091,0.008233003840242547,0.9992029880796072,0.0020482539489388267
1.6989999999999867,0.003671420991745654,0.010464258262955998,0.005486930623779831,0.00826205681861475,0.999498609603421,0.002050222733668972
1.6999999999999866,0.0035985328293673224,0.010413647799887843,0.005486476020073058,0.00829222537818637,0.999729397401054,0.0020520162735052985
1.7009999999999863,0.0035268315324384564,0.010366506461460222,0.00548619605908016,0.008323451671552632,0.9998921020534461,0.0020536279427468347
1.7019999999999864,0.0034563790046401905,0.010322786066671998,0.005486087545754945,0.008355674305919047,0.9999834187236311,0.00205505108756374
1.7029999999999863,0.00338723449510449,0.010282430642112782,0.005486146377134129,0.008388828488539399,1.0,0.0020562790502388975
1.7039999999999862,0.003319454551260981,0.010245376805426431,0.005486367586354664,0.008422846180207583,0.9999384689218851,0.002057305193600565
1.704999999999986,0.0032530929761145975,0.01021155415555904,0.005486745387304381,0.008457656256567756,0.9997954321448659,0.002058122925567272
1.705999999999986,0.0031882007899860522,0.01018088566871658,0.00548727321972203,0.00849318467697555,0.99956749320093,0.0020587257237218663
1.706999999999986,0.0031248261967388425,0.010153288098938418,0.005487943794581545,0.008529354660612935,0.9992512658064095,0.0020591071598309862
1.7079999999999858,0.0030630145545098323,0.010128672382179155,0.0054887491396108665,0.008566086869531971,0.9988433871693803,0.0020592609242235885
1.7089999999999856,0.0030028083509508535,0.01010694404278756,0.00548968064480317,0.008603299598272822,0.9983405312484325,0.0020591808499425325
1.7099999999999855,0.0029442471829813246,0.010088003601288406,0.005490729107779416,0.008640908969671542,0.9977394219160344,0.0020588609365883945
1.7109999999999854,0.0028873677410436705,0.010071746982424972,0.005491884778861292,0.00867882913644194,0.997036845981337,0.0020582953737755295
1.711999999999985,0.0028322037978471583,0.010058065922508139,0.00549313740571266,0.008716972488085522,0.9962296660286606,0.0020574785641260555
1.7129999999999852,0.002778786201581256,0.010046848375215729,0.0054944762774187745,0.008755249862653823,0.9953148330292823,0.002056405145727372
1.713999999999985,0.00272714287357502,0.010037978915063167,0.005495890267883922,0.008793570762862446,0.9942893986860213,0.002055070013983101
1.714999999999985,0.002677298810375933,0.01003133913782765,0.005497367878445457,0.008831843576032497,0.9931505274728677,0.0020534683427903817
1.7159999999999849,0.0026292760902146763,0.010026808057257313,0.0054988972796148105,0.008869975797313304,0.9918955083351689,0.0020515956049809627
1.7169999999999848,0.0025830938838175364,0.010024262497435281,0.00550046635186886,0.008907874255619314,0.9905217660194445,0.0020494475919709673
1.7179999999999849,0.0025387684695184986,0.01002357748018687,0.00550206272542882,0.00894544534169856,0.9890268720055193,0.0020470204325676446
1.7189999999999843,0.0024963132526164026,0.010024626606921262,0.005503673818975657,0.008982595237741963,0.9874085550172329,0.0020443106108897478
1.7199999999999844,0.0024557387889130072,0.010027282434298257,0.005505286877258421,0.009019230147942134,0.9856647110910363,0.00204131498336246
1.7209999999999843,0.0024170528123614297,0.010031416843115282,0.005506889007560166,0.009055256529409021,0.983793413183998,0.0020380307947521566
1.7219999999999842,0.002380260266742969,0.010036901399813693,0.005508467214993084,0.009090581322843662,0.9817929203042698,0.002034455693208722
1.722999999999984,0.002345363341284471,0.010043607710011494,0.00551000843660338,0.009125112182358655,0.9796616861483332,0.0020305877442843815
1.723999999999984,0.0023123615101173925,0.010051407763475826,0.005511499574274609,0.009158757703821194,0.9773983672307948,0.002026425443898937
1.724999999999984,0.002281251575473671,0.010060174269962495,0.005512927526428049,0.009191427651086529,0.9750018304940338,0.00202196773022703
1.7259999999999838,0.002252027714504684,0.010069780985372413,0.005514279218531465,0.009223033179480335,0.9724711603864622,0.002017213994488762
1.7269999999999837,0.0022246815296063493,0.010080103027714065,0.005515541632441613,0.009253487055875373,0.9698056653994985,0.002012164090631893
1.7279999999999835,0.002199202102127692,0.010091017182412334,0.0055167018346198105,0.009282703874693274,0.9670048840548978,0.002006818343899815
1.7289999999999834,0.0021755760493413923,0.010102402196553712,0.005517747003268066,0.009310600269144018,0.964068590335927,0.00200117755828277
1.729999999999983,0.00215378758455054,0.01011413906170416,0.005518664454443325,0.009337095117004108,0.9609967985577048,0.0019952430228510815
1.7309999999999832,0.0021338185802080973,0.010126111284968025,0.005519441667215076,0.009362109740235297,0.9577897676735343,0.0019890165169718283
1.731999999999983,0.0021156486339229757,0.010138205147986485,0.005520066307939802,0.009385568097778242,0.954448005015538,0.0019825003144114234
1.732999999999983,0.0020992551372277547,0.01015030995358554,0.005520526253724978,0.009407396970914314,0.9509722694700009,0.001975697186330095
1.7339999999999829,0.002084613346979783,0.010162318259794568,0.005520809615149707,0.009427526140656294,0.9473635740909779,0.001968610403179722
1.7349999999999828,0.0020716964592646376,0.010174126100964333,0.005520904758298423,0.009445888556681485,0.9436231881596159,0.0019612437355217417
1.735999999999983,0.002060475685667059,0.010185633195737964,0.005520800326152467,0.00946242049735823,0.939752638700356,0.0019536014537881435
1.7369999999999826,0.0020509203317748293,0.010196743141654932,0.005520485259378137,0.009477061720445183,0.9357537114678345,0.0019456883270122765
1.7379999999999824,0.002042997877779597,0.0102073635961954,0.00551994881654338,0.009489755604066733,0.9316284514197636,0.0019375096205589146
1.7389999999999823,0.002036674061039797,0.010217406444085454,0.005519180593788802,0.009500449277589564,0.9273791626919068,0.0019290710928855316
1.7399999999999822,0.0020319129604660703,0.010226787950684976,0.005518170543967493,0.009509093742051535,0.923008408091956,0.0019203789913681516
1.740999999999982,0.002028677082586277,0.010235428901273127,0.00551690899525634,0.009515643979824144,0.9185190081296812,0.001911440047228558
1.741999999999982,0.0020269274491413894,0.01024325472604223,0.005515386669229297,0.009520059053217818,0.9139140396006982,0.0019022614695998997
1.742999999999982,0.0020266236860568606,0.010250195610609646,0.005513594698375933,0.009522302191773073,0.9091968337402594,0.0018928509387686654
1.7439999999999818,0.0020277241136301563,0.01025618659187998,0.0055115246430432205,0.009522340868038786,0.9043709739618122,0.0018832165986281024
1.7449999999999817,0.0020301858377678103,0.010261167639134988,0.0055091685077761415,0.009520146861718632,0.899440293193021,0.0018733670483760641
1.7459999999999816,0.0020339648421036174,0.010265083720300666,0.005506518757032875,0.00951569631215803,0.8944088708197454,0.001863311333486026
1.7469999999999817,0.0020390160808259642,0.010267884853408633,0.005503568330252658,0.009508969759219344,0.889281029245974,0.0018530589359777956
1.7479999999999811,0.0020452935720379492,0.01026952614332356,0.005500310656263774,0.009499952172654536,0.8840613300749883,0.001842619764008765
1.7489999999999812,0.0020527504914746833,0.010269967803850125,0.005496739667023724,0.00948863297012517,0.8787545699141281,0.0018320041408035749
1.7499999999999811,0.002061339266401271,0.010269175165372905,0.005492849810687026,0.009475006024041157,0.873365775802615,0.0018212227929356672
1.750999999999981,0.0020710116695214953,0.01026711866821548,0.005488636063992565,0.009459069657395784,0.86790020025898,0.0018102868379681774
1.751999999999981,0.0020817189127338765,0.010263773841927575,0.005484093943953505,0.009440826628777979,0.8623633159418317,0.0017992077714583327
1.7529999999999808,0.0020934117405816345,0.010259121270731364,0.00547921951882315,0.009420284106754141,0.8567608099150953,0.0017879974533228152
1.753999999999981,0.002106040523250355,0.01025314654539861,0.005474009418296031,0.009397453633820189,0.8510985775068567,0.0017766680935582574
1.7549999999999806,0.0021195553489709745,0.01024584020189373,0.005468460842890439,0.009372351080128377,0.8453827157501714,0.0017652322373085988
1.7559999999999805,0.0021339061156881666,0.010237197647182573,0.005462571572448873,0.009344996587194333,0.8396195163950324,0.001753702749273716
1.7569999999999804,0.0021490426218525273,0.01022721907265152,0.005456339973681631,0.009315414501806405,0.8338154584827713,0.0017420927974555547
1.7579999999999802,0.0021649146561962397,0.01021590935561078,0.0054497650066769225,0.009283633300397718,0.8279772004765757,0.0017304158362440626
1.75899999999998,0.0021814720863540353,0.010203277949384902,0.005442846230297319,0.009249685504187742,0.8221115719439588,0.0017186855888472884
1.75999999999998,0.002198664946194784,0.010189338762533369,0.005435583806384972,0.009213607585432312,0.8162255647889984,0.001706916029074442
1.76099999999998,0.0022164435217318255,0.010174110027783647,0.005427978502698911,0.009175439865137788,0.8103263240343574,0.0016951213624822954
1.7619999999999798,0.0022347584354859484,0.010157614161292378,0.00542003169450859,0.009135226402605083,0.8044211381552852,0.001683316006899558
1.7629999999999797,0.002253560729180914,0.01013987761287689,0.00541174536476577,0.009093014877185366,0.7985174289695117,0.001671514572342921
1.7639999999999796,0.0022728019446551107,0.010120930707874138,0.005403122102775534,0.009048856462650403,0.792622741087879,0.0016597318403394064
1.7649999999999797,0.002292434202872552,0.010100807481293574,0.005394165101294064,0.009002805694603384,0.7867447309314375,0.0016479827426677314
1.7659999999999794,0.002312410280914389,0.010079545504926414,0.005384878151994438,0.00895492033137255,0.7808911553225313,0.0016362823395326242
1.7669999999999793,0.0023326836868317793,0.01005718570806418,0.005375265639266258,0.00890526120884237,0.775069859659993,0.0016246457971887775
1.7679999999999791,0.0023532087322400233,0.010033772192465581,0.0053653325323388965,0.008853892089682716,0.7692887656909351,0.0016130883650304138
1.768999999999979,0.0023739406025383544,0.01000935204219599,0.005355084375740249,0.008800879507435551,0.7635558588929909,0.0016016253521647812
1.769999999999979,0.002394835424642046,0.00998397512895135,0.005344527278118883,0.008746292605911136,0.7578791754815072,0.0015902721034864984
1.7709999999999788,0.0024158503321185794,0.009957693913476475,0.005333667899475137,0.008690202974332885,0.7522667890568261,0.001579043975273683
1.7719999999999787,0.002436943527621526,0.009930563243687672,0.0053225134368602815,0.008632684478654363,0.7467267969078479,0.0015679563103289937
1.7729999999999786,0.002458074342517031,0.00990264015010929,0.005311071608613821,0.008573813089455675,0.7412673059893907,0.001557024412692938
1.7739999999999785,0.0024792032935988446,0.009873983639223522,0.00529935063720965,0.008513666706811515,0.7358964185919342,0.0015462635219613673
1.7749999999999784,0.0025002921367858495,0.009844654485316733,0.005287359230780965,0.008452324982509538,0.7306222177229339,0.0015356887872393307
1.7759999999999785,0.0025213039176991267,0.009814715021385008,0.0052751065633932165,0.008389869139992361,0.7254527522197082,0.0015253152407668103
1.7769999999999782,0.0025422030190167307,0.00978422892964063,0.005262602254136229,0.008326381792392014,0.72039602161577,0.001515157771254473
1.777999999999978,0.002562955204513016,0.009753261032141093,0.0052498563451131896,0.008261946759017485,0.715459960785318,0.0015052310969724883
1.778999999999978,0.002583527659698145,0.009721877082041494,0.0052368792784063915,0.008196648880648113,0.710652424393498,0.0014955497386394125
1.7799999999999778,0.002603889028983665,0.009690143555946234,0.0052236818720980405,0.00813057383397626,0.7059811711823263,0.0014861279921612625
1.7809999999999775,0.0026240094493074494,0.009658127447811866,0.005210275295420364,0.008063807945542333,0.7014538481239034,0.0014769799012737505
1.7819999999999776,0.0026438605801556193,0.009625896064827463,0.005196671043101072,0.007996438005508089,0.6970779744742596,0.001468119230141638
1.7829999999999775,0.0026634156299200065,0.009593516825689744,0.005182880908964769,0.007928551081618346,0.6928609257631835,0.001459559435972072
1.7839999999999774,0.002682649378529766,0.009561057061688593,0.005168916958850003,0.007860234333704195,0.6888099177578684,0.0014513136417039088
1.7849999999999773,0.002701538196296556,0.009528583821018854,0.005154791502903066,0.007791574829086275,0.6849319904411514,0.001443394608837697
1.7859999999999772,0.0027200600589129065,0.00949616367672529,0.0051405170673181145,0.007722659359238087,0.6812339920480937,0.0014358147104794885
1.786999999999977,0.002738194558545084,0.009463862538666674,0.005126106365594618,0.007653574258070924,0.6777225632068405,0.0014285859046726259
1.787999999999977,0.0027559229109651792,0.00943174546985911,0.0051115722693829664,0.007584405222204795,0.674404121230795,0.0014217197080951757
1.7889999999999768,0.0027732279586723104,0.009399876507538695,0.005096927778984467,0.007515237133587862,0.6712848446095088,0.0014152271701999759
1.7899999999999767,0.0027900941699646326,0.009368318489265393,0.00508218599357256,0.007446153884826286,0.6683706577458312,0.0014091188478752947
1.7909999999999766,0.0028065076339425393,0.009337132884380548,0.005067360081207893,0.007377238207581146,0.6656672159869994,0.0014034047807037217
1.7919999999999765,0.002822456051445095,0.009306379631117781,0.005052463248726095,0.007308571504383977,0.6631798909974757,0.0013980944668977365
1.7929999999999764,0.0028379287219436134,0.009276116979655902,0.005037508711583834,0.007240233684222035,0.6609137565211692,0.001393196839990358
1.7939999999999765,0.0028529165264358364,0.009246401341383147,0.005022509663751044,0.007172303002240796,0.6588735745800243,0.0013887202463579648
1.7949999999999762,0.002867411906404514,0.009217287144624513,0.005007479247741129,0.007104855903907812,0.6570637821548964,0.0013846724236511987
1.795999999999976,0.0028814088389282036,0.009188826697063323,0.004992430524873623,0.007037966873970101,0.655488478393329,0.0013810604802070789
1.796999999999976,0.0028949028080505514,0.00916107005507142,0.00497737644586522,0.006971708290520883,0.6541514123872837,0.0013778908755120213
1.7979999999999758,0.0029078907725300068,0.009134064900149327,0.004962329821843431,0.006906150284475027,0.6530559715620347,0.001375169401782311
1.7989999999999755,0.0029203711301010534,0.009107856422668276,0.0049473032958722634,0.006841360604741156,0.6522051707154116,0.0013729011667239176
1.7999999999999756,0.0029323436783827515,0.009082487213107893,0.004932309315077118,0.006777404489372083,0.6516016417444295,0.001371090577530104
1.8009999999999755,0.002943809572580159,0.009057997160986528,0.004917360103456047,0.00671434454297565,0.651247624094175,0.0013697413261708302
1.801999999999976,0.002954771280133958,0.009034423361678527,0.004902467635468747,0.006652240620662956,0.6511449559616025,0.001368856376025455
1.8029999999999755,0.00296523253248948,0.009011800031308664,0.004887643610496011,0.006591149718801279,0.6512950662846485,0.001368437949905582
1.8039999999999752,0.0029751982741671214,0.008990158429901265,0.004872899428263607,0.006531125872819788,0.6516989675448046,0.0013684875195120738
1.804999999999975,0.002984674609327241,0.008969526792952142,0.004858246165315988,0.0064722200622940665,0.6523572494089733,0.0013690057963648215
1.805999999999975,0.0029936687460275957,0.008949930271569602,0.004843694552618419,0.006414480123514938,0.6532700732340548,0.0013699927242411612
1.8069999999999748,0.0030021889383797435,0.008931390881310538,0.004829254954353886,0.006357950669722721,0.6544371674553059,0.0013714474731528579
1.8079999999999747,0.0030102444268177843,0.008913927459811842,0.004814937347975592,0.006302673019170403,0.6558578238770936,0.0013733684348903531
1.8089999999999744,0.0030178453767028433,0.008897555633299897,0.004800751305571645,0.00624868513115928,0.6575308948822641,0.0013757532201547965
1.8099999999999743,0.003025002815494399,0.008882287792041315,0.004786705976598539,0.0061960215501735225,0.6594547915739392,0.0013785986572976453
1.8109999999999744,0.0030317285687195923,0.008868133074777879,0.004772810072037779,0.006144713358222092,0.6616274828611296,0.0013819007926795242
1.8119999999999743,0.0030380351949700663,0.008855097362169722,0.0047590718500257105,0.006094788135479049,0.6640464954971261,0.0013856548926584377
1.8129999999999744,0.003043935920148675,0.008843183279243568,0.0047454991029998355,0.00604626992929526,0.6667089150771924,0.0013898554472100816
1.813999999999974,0.0030494445711832818,0.008832390206818336,0.004732099146395845,0.005999179231637299,0.6696113879996883,0.0013944961751825343
1.814999999999974,0.0030545755094179092,0.008822714301854136,0.0047188788089181245,0.005953532964992213,0.6727501243923597,0.0013995700311807955
1.8159999999999736,0.0030593435638851104,0.008814148526646479,0.004705844424395184,0.005909344476758427,0.6761209020031713,0.0014050692140758986
1.8169999999999733,0.003063763964655095,0.008806682686767736,0.004693001825220456,0.0058666235421265854,0.6797190710527466,0.001410985177128008
1.8179999999999736,0.0030678522764486875,0.008800303477641292,0.004680356337371769,0.005825376375436237,0.683539560043208,0.0014173086397110774
1.8189999999999733,0.003071624332692401,0.008794994539614496,0.004667912776997871,0.005785605649976269,0.6875768825158798,0.0014240296006214877
1.8199999999999728,0.003075096170184261,0.008790736521376042,0.004655675448560414,0.0057473105261788065,0.6918251447478597,0.00143113735295015
1.8209999999999733,0.0030782839645321137,0.008787507151534972,0.004643648144522016,0.005710486688140208,0.6962780543748984,0.0014386205004918665
1.8219999999999728,0.003081203966517318,0.008785281318152345,0.00463183414657572,0.005675126388388035,0.7009289299254005,0.0014464669756621927
1.822999999999973,0.003083872439531119,0.008784031155988145,0.00462023622841204,0.00564121850079915,0.7057707112477508,0.0014546640588877938
1.823999999999973,0.0030863055982269984,0.008783726141201747,0.00460885666002052,0.0056087485815612,0.7107959708105829,0.001463198399430189
1.8249999999999729,0.003088519548525187,0.00878433319322666,0.0045976972135243505,0.005577698938055892,0.7159969258530043,0.0014720560376019734
1.8259999999999728,0.0030905302291010972,0.00878581678352464,0.0045867591705466455,0.005548048705527102,0.7213654513591633,0.0014812224283260907
1.8269999999999729,0.0030923533544798473,0.008788139050909768,0.00457604333110976,0.005519773931381829,0.7268930938289025,0.0014906824659870225
1.8279999999999723,0.0030940043598527336,0.008791259923112731,0.004565550024067095,0.005492847666956729,0.7325710858136911,0.001500420510516954
1.8289999999999724,0.003095498347722495,0.008795137244231232,0.004555279119063287,0.005467240066566801,0.7383903611845721,0.001510420414656905
1.8299999999999723,0.0030968500364751037,0.008799726907683653,0.004545230040013015,0.005442918493637383,0.7443415710965672,0.001520665552329471
1.830999999999972,0.003098073710965122,0.008804982994256562,0.004535401780082414,0.005419847633706641,0.750415100611738,0.0015311388480579718
1.831999999999972,0.00309918317519273,0.00881085791480599,0.0045257929181505875,0.005397989614067931,0.7566010859408508,0.0015418228073634606
1.832999999999972,0.003100191707141218,0.008817302557143103,0.0045164016367180955,0.005377304129807909,0.7628894322612577,0.0015526995480685864
1.833999999999972,0.0031011120158413873,0.008824266436603353,0.004507225741219846,0.005357748575975807,0.7692698320661803,0.0015637508324344085
1.834999999999972,0.003101956200727169,0.008831697849769154,0.004498262680684151,0.005339278185603024,0.7757317839980586,0.0015749581000515122
1.835999999999972,0.003102735713349984,0.00883954403078506,0.0044895095696657426,0.0053218461732716035,0.7822646121160964,0.0015863025014033868
1.8369999999999715,0.003103461321517623,0.008847751309677106,0.004480963211366122,0.005305403883911561,0.788857485545669,0.0015977649320148763
1.837999999999972,0.0031041430759212343,0.008856265272060806,0.0044726201218417425,0.005289900946486778,0.7954994384549581,0.0016093260670953233
1.8389999999999715,0.0031047902793081283,0.00886503091960253,0.004464476555189867,0.005275285432209688,0.802179390301923,0.001620966396582143
1.8399999999999712,0.003105411458253126,0.008873992830587719,0.004456528529598228,0.005261504016904413,0.8088861662923945,0.0016326662604872946
1.840999999999971,0.003106014337574692,0.008883095319948475,0.004448771854142488,0.005248502147117237,0.8156085179879948,0.0016444058844452796
1.841999999999971,0.0031066058174363136,0.008892282598104519,0.004441202156215221,0.005236224209556079,0.8223351440013551,0.0016561654153611197
1.8429999999999709,0.0031071919531677934,0.00890149892797382,0.004433814909465266,0.005224613703421012,0.8290547107163804,0.0016679249570555198
1.8439999999999708,0.0031077779378356407,0.008910688779514965,0.004426605462123828,0.005213613415174533,0.8357558729729027,0.0016796646058088156
1.8449999999999709,0.0031083680875876965,0.008919796981182983,0.004419569065591586,0.00520316559528877,0.8424272946572091,0.001691364485707856
1.8459999999999703,0.0031089658297930958,0.008928768867728977,0.004412700903167173,0.005193212136495226,0.84905766914189,0.001703004783702696
1.8469999999999704,0.003109573693995825,0.008937550423842887,0.004405996118805926,0.005183694753051359,0.8556357395203625,0.0017145657842817508
1.8479999999999703,0.0031101933056937817,0.008946088423232065,0.004399449845807249,0.005174555160523427,0.8621503185838182,0.001726027903677595
1.8489999999999704,0.003110825382952485,0.008954330562825307,0.0043930572353394655,0.005165735255569945,0.868590308491542,0.0017373717235194504
1.84999999999997,0.003111469735857611,0.008962225591880748,0.004386813484724664,0.0051571772951976265,0.8749447200894185,0.0017485780238543356
1.85099999999997,0.0031121252688107643,0.008969723435836865,0.00438071386541551,0.005148824074952037,0.8812026918355341,0.0017596278154666791
1.85199999999997,0.003112789985671271,0.008976775314774236,0.0043747537506043585,0.005140619105500096,0.887353508295898,0.0017705023714317365
1.8529999999999696,0.0031134609977477045,0.008983333856363521,0.004368928642408688,0.0051325067870584135,0.8933866181774314,0.0017811832578471364
1.8539999999999697,0.003114134534638538,0.008989353203175307,0.004363234198576425,0.005124432581120097,0.8992916518695563,0.0017916523636926018
1.8549999999999696,0.003114805957914358,0.008994789114232904,0.004357666258655372,0.005116343178931002,0.9050584384698103,0.001801891929775376
1.8559999999999688,0.0031154697776263948,0.008999599060706706,0.004352220869571892,0.005108186666170247,0.9106770222726933,0.0018118845767246877
1.856999999999969,0.003116119671617656,0.009003742315676888,0.004346894310564051,0.005099912683296886,0.9161376787042271,0.0018216133320043506
1.8579999999999688,0.0031167485076058483,0.009007180037924764,0.004341683117412581,0.005091472581040887,0.9214309296875023,0.0018310616559165215
1.858999999999969,0.0031173483680027635,0.009009875349737182,0.004336584105912152,0.005082819570543105,0.9265475584269408,0.0018402134665743747
1.859999999999969,0.0031179105774298303,0.00901179340871847,0.00433159439452873,0.005073908867678838,0.9314786236015196,0.0018490531638265296
1.860999999999969,0.003118425732886946,0.009012901473602833,0.004326711426198197,0.005064697831136729,0.9362154729596109,0.001857565652120068
1.8619999999999688,0.003118883736523415,0.009013168964060054,0.004321932989231615,0.005055146093856226,0.9407497563098703,0.0018657363622935144
1.862999999999969,0.003119273830952169,0.009012567514498894,0.004317257237296691,0.005045215687453171,0.9450734379033171,0.0018735512722934007
1.8639999999999688,0.0031195846370385564,0.0090110710218917,0.004312682708439265,0.00503487115928541,0.9491788082018636,0.0018809969268090256
1.8649999999999685,0.003119804194086238,0.009008655687657106,0.004308208343101302,0.0050240796818226165,0.9530584950286421,0.0018880604558218486
1.8659999999999684,0.0031199200023345934,0.009005300053650004,0.004303833501081274,0.005012811153994836,0.956705474095745,0.0018947295920662057
1.866999999999968,0.0031199190676769323,0.009000985032313391,0.004299557977377618,0.005001038294205113,0.9601130789051762,0.0019009926874002056
1.867999999999968,0.003119787948502468,0.008995693931051766,0.004295382016852576,0.004988736724718416,0.963275010019061,0.0019068387280869283
1.868999999999968,0.0031195128045593697,0.008989412470880741,0.004291306327652544,0.004975885047180813,0.9661853436956136,0.0019122573489860474
1.869999999999968,0.0031190794477297537,0.008982128799399724,0.004287332093319431,0.004962464909083609,0.9688385398880884,0.0019172388466586583
1.870999999999968,0.0031184733945982756,0.008973833498126705,0.004283460983522329,0.00494846106103904,0.9712294496048842,0.001921774191388087
1.871999999999968,0.0031176799206904613,0.00896451958423415,0.004279695163339691,0.004933861404778001,0.9733533216301916,0.0019258550381205705
1.872999999999968,0.0031166841162465425,0.008954182506734146,0.004276037301021216,0.004918657031811113,0.9752058086056317,0.001929473736329928
1.873999999999968,0.0031154709433915658,0.008942820137163248,0.004272490574164188,0.004902842252724624,0.9767829724737486,0.0019326233388103605
1.874999999999968,0.0031140252945548686,0.008930432754814404,0.004269058674236843,0.004886414617113736,0.9780812892836852,0.001935297609398722
1.8759999999999672,0.003112332051982969,0.008917023026554971,0.004265745809384571,0.004869374924184697,0.9790976533577976,0.0019374910296239742
1.8769999999999671,0.003110376148184042,0.00890259598126391,0.004262556705455195,0.004851727224090946,0.9798293808155789,0.0019391988042767548
1.877999999999967,0.0031081426271329154,0.008887158978919351,0.0042594966051833875,0.004833478810097776,0.9802742124485303,0.0019404168658868355
1.878999999999967,0.003105616706059663,0.00887072167438308,0.004256571265475751,0.00481464020169541,0.9804303159371928,0.0019411418780932227
1.8799999999999668,0.00310278383763879,0.008853295975954368,0.004253786952739724,0.004795225118797049,0.9802962874000269,0.0019413712378911648
1.8809999999999667,0.003099629772393396,0.008834895998804071,0.004251150436201708,0.004775250447165348,0.9798711522636993,0.0019411030767420838
1.8819999999999664,0.003096140621124473,0.008815538013432513,0.004248668979168437,0.004754736195218704,0.9791543654455972,0.0019403362605340069
1.8829999999999665,0.0030923029171752237,0.008795240389321488,0.004246350328202385,0.004733705442383835,0.978145810841534,0.0019390703883835029
1.8839999999999664,0.0030881036783377918,0.00877402353397399,0.004244202700205258,0.004712184279188217,0.9768458001141018,0.0019373057902718897
1.8849999999999665,0.003083530468210399,0.008751909827558711,0.004242234767425517,0.004690201739321675,0.9752550707797704,0.0019350435235130589
1.885999999999966,0.0030785714568103157,0.00872892355340149,0.004240455640422081,0.004667789723939077,0.9733747835951841,0.001932285368052662
1.886999999999966,0.0030732154802487898,0.008705090824592664,0.004238874849019627,0.0046449829185072735,0.9712065192446645,0.0019290338205992857
1.887999999999966,0.003067452099271068,0.008680439506999054,0.004237502321290846,0.004621818702520352,0.9687522743316282,0.0019252920875892793
1.8889999999999656,0.0030612716564619833,0.008654999138978443,0.0042363483606001,0.004598337052416741,0.966014456676989,0.0019210640769853659
1.8899999999999657,0.003054665331914413,0.008628800848087556,0.004235423620753872,0.004574580438036009,0.9629958799282147,0.0019163543889123018
1.8909999999999656,0.003047625197155391,0.008601877265058185,0.004234739079319389,0.004550593712954576,0.9596997574838841,0.0019111683051345751
1.8919999999999653,0.0030401442671239456,0.008574262435292546,0.004234306009193099,0.004526423999038699,0.9561296957401857,0.001905511777385133
1.8929999999999647,0.0030322165499975383,0.008545991728108418,0.004234135948510449,0.004502120565557034,0.9522896866675742,0.0018993914145579763
1.8939999999999653,0.003023837094672989,0.008517101743951955,0.00423424066899526,0.0044777347031984905,0.948184099727657,0.0018928144687792518
1.8949999999999647,0.0030150020357163753,0.008487630219794824,0.004234632142852002,0.004453319593343213,0.9438176731424357,0.0018857888203759774
1.895999999999965,0.003005708635607573,0.008457615932932558,0.004235322508315226,0.004428930172936915,0.939195504530118,0.0018783229617641
1.896999999999965,0.00299595532411401,0.00842709860340423,0.004236324033978606,0.004404622995316149,0.9343230409232977,0.0018704259802801728
1.8979999999999648,0.002985741734637031,0.008396118795255654,0.00423764908203519,0.004380456087329708,0.9292060681861128,0.0018621075399819901
1.8989999999999647,0.0029750687373829364,0.008364717816877304,0.004239310070568932,0.00435648880309578,0.923850699847554,0.001853377862444797
1.8999999999999648,0.002963938469219355,0.00833293762066095,0.004241319435039641,0.004332781674731179,0.9182633653696154,0.0018442477065823341
1.9009999999999645,0.0029523543600851916,0.00830082070223319,0.0042436895891053185,0.004309396260394543,0.9124507978719182,0.0018347283475280839
1.9019999999999644,0.0029403211558295277,0.008268409999530605,0.004246432884920612,0.004286394989993104,0.9064200213381747,0.0018248315546195099
1.9029999999999645,0.0029278449373578595,0.008235748791977231,0.004249561573042931,0.004263841008907151,0.9001783373331982,0.0018145695685343887
1.903999999999964,0.0029149331359685613,0.00820288060002136,0.0042530877620691465,0.004241798020086546,0.893733311261668,0.001803955077633388
1.904999999999964,0.002901594544765077,0.008169849085278806,0.004257023378117002,0.0042203301248660546,0.8870927582017248,0.001793001193568254
1.905999999999964,0.0028878393260348707,0.008136697951524989,0.004261380124262157,0.0041995016628385215,0.8802647283480723,0.0017817214262189195
1.906999999999964,0.002873679014494643,0.008103470846763824,0.004266169440037717,0.004179377051114308,0.8732574921005225,0.0017701296580260823
1.907999999999964,0.0028591265163158686,0.008070211266581986,0.004271402461104314,0.004160020623285887,0.8660795248344537,0.001758240117788214
1.908999999999964,0.002844196103857555,0.008036962458973498,0.0042770899791960484,0.004141496468409323,0.8587394913891769,0.0017460673539890573
1.9099999999999635,0.0028289034060538583,0.00800376733079529,0.004283242402442443,0.004123868270314726,0.851246230308847,0.0017336262077208896
1.910999999999964,0.0028132653944294237,0.007970668356000302,0.004289869716163023,0.004107199147557412,0.8436087378686413,0.0017209317852629068
1.9119999999999635,0.002797300364750165,0.00793770748578457,0.004296981444225263,0.0040915514943227664,0.8358361519166518,0.0017079994303694655
1.9129999999999632,0.0027810279143516753,0.007904926060775856,0.004304586611056727,0.004076986822595345,0.8279377355593799,0.0016948446963184563
1.913999999999963,0.0027644689152198274,0.007872364725381914,0.004312693704399938,0.0040635656058985534,0.8199228607159893,0.0016814833177637137
1.914999999999963,0.0027476454829228935,0.007840063344402877,0.004321310638898043,0.0040513471249105405,0.8118009915637167,0.001667931182431236
1.9159999999999628,0.002730580941511721,0.007808060921997494,0.004330444720592225,0.0040403893152580915,0.8035816678941189,0.00165420430269261
1.9169999999999627,0.002713299784515879,0.0077763955230777644,0.004340102612404587,0.004030748617789712,0.7952744883973695,0.0016403187870463402
1.9179999999999624,0.0026958276321718032,0.007745104197190386,0.0043502903006701395,0.0040224798316310885,0.7868890938902466,0.0016262908115330804
1.9189999999999623,0.002678191185024827,0.007714222904934018,0.004361013062777081,0.004015635970324747,0.7784351505035783,0.0016121365911102715
1.9199999999999624,0.0026604181740586762,0.0076837864469589,0.004372275435970488,0.004010268121350042,0.7699223328469551,0.001597872351014319
1.9209999999999623,0.0026425373075099614,0.007653828395594859,0.004384081187376538,0.004006425309307105,0.7613603071718149,0.00158351429814189
1.9219999999999624,0.0026245782145345757,0.007624381029153367,0.00439643328530141,0.004004154363035775,0.7527587145577265,0.0015690785924884093
1.922999999999962,0.002606571385893793,0.007595475268951261,0.004409333871857122,0.004003499786924536,0.7441271541502655,0.0015545813186861213
1.923999999999962,0.0025885481118326868,0.007567140619116161,0.004422784236957166,0.004004503636652328,0.7354751664819691,0.0015400384576898067
1.9249999999999616,0.002570540417324692,0.007539405109259088,0.004436784793719651,0.0040072053995958284,0.7268122169104066,0.0015254658586618518
1.9259999999999613,0.002552580994862231,0.007512295240125449,0.004451335055309772,0.004011641880125157,0.7181476792096606,0.0015108792111139043
1.9269999999999616,0.002534703134981414,0.007485835932358665,0.004466433613257197,0.004017847090005899,0.7094908193537424,0.0014962940173696593
1.9279999999999613,0.002516940654720161,0.007460050478526431,0.004482078117289985,0.004025852144117408,0.7008507795324699,0.0014817255654199384
1.9289999999999607,0.0024993278242180974,0.007434960498565619,0.004498265256739049,0.004035685161693038,0.6922365624413382,0.0014671889022459786
1.9299999999999613,0.0024818992916713586,0.007410585898801877,0.004514990743580101,0.004047371173276864,0.6836570158865014,0.0014526988076851931
1.9309999999999607,0.0024646900068572707,0.0073869448346941344,0.004532249297191328,0.004060932033582705,0.6751208177444352,0.0014382697689128308
1.931999999999961,0.002447735143437793,0.007364053677448223,0.004550034630911616,0.0040763863404269735,0.6666364613138467,0.0014239159556070546
1.932999999999961,0.0024310700202476564,0.007341926984638959,0.004568339440485205,0.004093749359894326,0.6582122410954276,0.0014096511958623557
1.9339999999999609,0.0024147300217661513,0.007320577474974028,0.004587155394478003,0.004113032957880435,0.6498562390331933,0.0013954889529110216
1.9349999999999608,0.0023987505179698296,0.007300016007322296,0.0046064731267457205,0.004134245538145535,0.641576311249306,0.0013814423027107908
1.9359999999999609,0.0023831667837613175,0.007280251564121204,0.0046262822310336165,0.004157391987003477,0.6333800753024127,0.0013675239124518253
1.9369999999999603,0.002368013918167005,0.007261291239266594,0.004646571257782533,0.0041824736247662725,0.6252748979976575,0.001353746020034107
1.9379999999999604,0.0023533267634943114,0.0072431402305834225,0.0046673277132113725,0.004209488164059692,0.6172678837746934,0.0013401204145613189
1.9389999999999603,0.0023391398246353306,0.007225801836965836,0.004688538060736427,0.004238429675119988,0.6093658636983001,0.0013266584178960959
1.93999999999996,0.002325487188698473,0.007209277460268237,0.004710187724777353,0.004269288558174765,0.6015753850745865,0.0013133708673177297
1.94099999999996,0.002312402445144363,0.007193566612017917,0.004732261096989105,0.004302051523000695,0.5939027017142049,0.001300268099321198
1.94199999999996,0.002299918606597358,0.007178666925005488,0.004754741544945923,0.004336701575741726,0.5863537648624668,0.001287359934595657
1.94299999999996,0.002288068030500186,0.007164574169791851,0.004777611423293262,0.004373218013060557,0.5789342148147023,0.001274655664215959
1.94399999999996,0.002276882341774287,0.007151282276148531,0.004800852087369586,0.004411576423686987,0.571649373233597,0.0012621640370798536
1.94499999999996,0.002266392356647842,0.007138783359423442,0.004824443909290681,0.004451748697416892,0.564504236183555,0.0012498932486193653
1.9459999999999595,0.0022566280078088288,0.007127067751801828,0.004848366296482531,0.004493703041604362,0.5575034678953604,0.0012378509308127532
1.94699999999996,0.002247618271039297,0.007116124038412191,0.004872597712648708,0.004537404005178922,0.550651395272557,0.001226044143518063
1.9479999999999595,0.002239391093481002,0.007105939098210811,0.004897115701157549,0.004582812510205402,0.5439520031490919,0.0012144793671475674
1.9489999999999592,0.002231973323678199,0.007096498149564143,0.004921896910832869,0.004629885890991831,0.5374089303058884,0.0012031624966970316
1.949999999999959,0.0022253906435388882,0.007087784800428834,0.004946917124124351,0.004678577940734751,0.5310254662521235,0.0011920988371408006
1.950999999999959,0.00221966750235003,0.007079781103009098,0.0049721512876235155,0.004728838965679022,0.5248045487751238,0.0011812931002011297
1.9519999999999589,0.002214827052979485,0.007072467612748907,0.004997573544878145,0.004780615846755338,0.5187487622610418,0.0011707494024958038
1.9529999999999588,0.002210891090392976,0.007065823451496016,0.0050231572714446926,0.004833852108645981,0.5128603367868987,0.0011604712650656417
1.9539999999999589,0.0022078799926126265,0.007059826374654678,0.005048875112104296,0.004888487996214967,0.507141147983103,0.0011504616142791009
1.9549999999999583,0.0022058126642397202,0.007054452842121886,0.005074699020156091,0.0049444605582230905,0.5015927176640752,0.0011407227841095766
1.9559999999999584,0.002204706482661064,0.007049678092783313,0.005100600298688102,0.005001703738232803,0.4962162152230865,0.0011312565197762708
1.9569999999999583,0.0022045772470521622,0.007045476222327706,0.0051265496437149045,0.005060148472590949,0.49101245978586344,0.0011220639827371488
1.9579999999999584,0.002205439130283749,0.007041820264124583,0.005152517189056317,0.005119722795364747,0.4859819231159521,0.0011131457570206591
1.958999999999958,0.002207304633832542,0.007038682272893887,0.005178472552820151,0.005180351950090825,0.4811247332632372,0.0011045018568781053
1.959999999999958,0.0022101845457897667,0.0070360334108792956,0.00520438488533662,0.005241958508185349,0.47644067894537157,0.0010961317357372526
1.9609999999999577,0.002214087902057312,0.0070338440362167545,0.005230222918382418,0.005304462493847712,0.47192921465022686,0.0010880342964319114
1.9619999999999576,0.002219021950816045,0.007032083793171489,0.005255955015517018,0.005367781515274928,0.4675894664458717,0.0010802079026810468
1.9629999999999577,0.0022249921203452987,0.007030721703896152,0.005281549223339971,0.0054318309019849645,0.4634202384830123,0.0010726503917838537
1.9639999999999576,0.0022320019902677267,0.007029726261345501,0.005306973323462855,0.005496523848030035,0.45942002017328337,0.0010653590884973636
1.9649999999999568,0.002240053266285996,0.007029065522968693,0.005332194884978133,0.005561771560861136,0.45558699402528396,0.0010583308200577879
1.965999999999957,0.002249145758472293,0.007028707204789362,0.005357181317208163,0.0056274834155867065,0.451919044118874,0.0010515619323058654
1.9669999999999568,0.0022592773631638363,0.007028618775479338,0.0053818999225303836,0.005693567114347196,0.4484137651969121,0.0010450483068739508
1.967999999999957,0.0022704440485114817,0.007028767550026638,0.005406317949101515,0.005759928850511162,0.44506847235225655,0.0010387853793901581
1.968999999999957,0.0022826398437221724,0.007029120782599227,0.005430402643333652,0.0058264734773801315,0.44188021128648386,0.0010327681586519886
1.969999999999957,0.002295856832027201,0.007029645758211319,0.005454121302004209,0.0058931046810753035,0.43884576911540574,0.001026991246718949
1.9709999999999568,0.002310085147404166,0.007030309882815991,0.00547744132390143,0.005959725157264955,0.43596168569510313,0.0010214488598696819
1.971999999999957,0.00232531297507387,0.007031080771474909,0.005500330260928034,0.006026236791374874,0.43322426544080606,0.001016134850367761
1.9729999999999568,0.0023415265557877427,0.007031926334284161,0.005522755868600563,0.006092540841911343,0.4306295896095522,0.0010110427289752094
1.9739999999999565,0.0023587101939186138,0.007032814859759416,0.005544686155898971,0.0061585381265117,0.4281735290162379,0.0010061656881534464
1.9749999999999563,0.002376846269360902,0.007033715095404489,0.005566089434431954,0.006224129210332637,0.42585175715145124,0.0010014966258858082
1.975999999999956,0.002395915253241956,0.007034596325215544,0.00558693436689553,0.006289214596384703,0.4236597636683718,0.0009970281700566077
1.976999999999956,0.002415895727442115,0.00703542844391512,0.005607190014806904,0.00635369491742209,0.42159286820501474,0.0009927527033174106
1.977999999999956,0.002436764407916201,0.0070361820277657075,0.005626825885497402,0.0064174711289967075,0.41964623450735894,0.0009886623883713958
1.978999999999956,0.0024584961718047923,0.007036828401869003,0.005645811978345134,0.006480444703279296,0.4178148848184989,0.000984749193604438
1.979999999999956,0.0024810640883192667,0.007037339703905894,0.005664118830220647,0.006542517823238267,0.41609371449887145,0.00098100491899309
1.980999999999956,0.0025044394533774612,0.007037688944311182,0.0056817175601165575,0.006603593576755247,0.41447750684266366,0.000977421222219074
1.981999999999956,0.0025285918279610194,0.007037850062899828,0.005698579912929109,0.006663576150239094,0.4129609480555167,0.0009739896449195279
1.982999999999956,0.0025534890801579614,0.007037797981978063,0.005714678302360381,0.006722371021286326,0.411538642358422,0.0009707016390038776
1.983999999999956,0.0025790974308454243,0.007037508655981792,0.0057299858529096,0.006779885149922042,0.4102051271821842,0.0009675485929655622
1.9849999999999552,0.0026053815029603855,0.007036959117689719,0.005744476440922721,0.006836027167945548,0.40895488841611516,0.0009645218581172357
1.9859999999999551,0.002632304374297447,0.0070361275210637925,0.0057581247346683295,0.00689070756590012,0.407782375673993,0.0009616127746770945
1.986999999999955,0.002659827633763221,0.007034993180767376,0.005770906233408081,0.006943838877183781,0.4066820175399334,0.0009588126976350842
1.987999999999955,0.002687911441010054,0.007033536608414201,0.005782797305427525,0.006995335858819156,0.40564823675674105,0.0009561130223307581
1.9889999999999548,0.0027165145893649242,0.0070317395455980975,0.005793775224992068,0.007045115668400645,0.4046754653195298,0.0009535052096785737
1.9899999999999547,0.002745594571963827,0.007029584993751818,0.005803818208188261,0.007093098036732229,0.4037581594378026,0.0009509808109817209
1.9909999999999544,0.0027751076509970646,0.007027057240878771,0.0058129054476105165,0.007139205435661519,0.4028908143295696,0.0009485314922792584
1.9919999999999545,0.0028050089299652423,0.007024141885195065,0.005821017145851034,0.007183363240600968,0.4020679788114901,0.0009461490581730481
1.9929999999999544,0.002835252428837001,0.007020825855717854,0.005828134547755642,0.00722549988721187,0.40128426964990627,0.0009438254750831513
1.9939999999999545,0.00286579116199333,0.007017097429834615,0.005834239971407028,0.007265547021707692,0.40053438563934335,0.0009415528938794799
1.994999999999954,0.0028965772188333802,0.007012946247889322,0.005839316837794014,0.0073034396442172595,0.39981312137753683,0.0009393236718426989
1.995999999999954,0.00292756184691064,0.007008363324820397,0.005843349699117127,0.00733911624464445,0.39911538070889563,0.0009371303939088839
1.996999999999954,0.002958695537460952,0.007003341058877606,0.005846324265672249,0.007372518930467238,0.3984361898109489,0.0009349658931584022
1.9979999999999536,0.0029899281131769537,0.00699787323743872,0.005848227431252563,0.007403593545941773,0.3977707099000517,0.0009328232705123955
1.9989999999999537,0.0030212088180760423,0.006991955039934556,0.005849047297011684,0.007432289782214869,0.3971142495331045,0.0009306959136019129
1.9999999999999536,0.003052486409300993,0.006985583037884207,0.00584877319374641,0.007458561277911213,0.3964622764815948,0.00092857751477458
2.0009999999999533,0.0030837092506845083,0.0069787551920289185,0.005847395702570178,0.007482365709855357,0.39581042915371006,0.0009264620882030382
2.0019999999999536,0.0031148254079020753,0.0069714708465446,0.0058449066739576705,0.0075036648736968355,0.39515452754014574,0.0009243439860603266
2.002999999999953,0.0031457827450318944,0.006963730720305517,0.005841299245138051,0.00752242475432395,0.3944905836595143,0.0009222179137272159
2.0039999999999534,0.0031765290223343717,0.006955536895171788,0.005836567855808024,0.007538615586058545,0.39381481147957337,0.0009200789439992
2.004999999999953,0.0032070119950576605,0.006946892801277095,0.0058307082621264755,0.007552211902707704,0.39312363629060737,0.0009179225302603241
2.005999999999953,0.00323717951306884,0.0069378031992990054,0.005823717548945345,0.00756319257759666,0.39241370350720134,0.0009157445185931884
2.0069999999999526,0.003266979621102663,0.006928274159696785,0.005815594140225489,0.007571540853731358,0.3916818868742627,0.0009135411587923466
2.007999999999953,0.0032963606594129343,0.006918313038900526,0.005806337807579308,0.007577244364246885,0.39092529605242354,0.0009113091142482324
2.0089999999999524,0.003325271364608626,0.006907928452432952,0.005795949676881128,0.007580295143307628,0.3901412835570367,0.0009090454706663793
2.0099999999999527,0.0033536609704555194,0.006897130244945578,0.0057844322328839655,0.007580689627633825,0.389327451024076,0.0009067477435849389
2.010999999999952,0.0033814793084319785,0.006885929457154817,0.005771789321784185,0.007578428648846544,0.3884816547756016,0.000904413884652197
2.0119999999999525,0.003408676907835078,0.006874338289674525,0.005758026151684476,0.007573517416839783,0.38760201065731265,0.0009020422866279107
2.012999999999952,0.0034352050952443096,0.006862370063754089,0.005743149290918594,0.0075659654944023455,0.38668689812166374,0.0008996317870735165
2.0139999999999523,0.0034610160931543726,0.00685003917894789,0.005727166664218936,0.007555786763325882,0.3857349635325037,0.000897181670703742
2.014999999999952,0.003486063117591739,0.006837361067759194,0.005710087546726348,0.007542999382243993,0.3847451226709972,0.0008946916703797111
2.015999999999952,0.0035103004745268033,0.006824352147323512,0.0056919225558559865,0.0075276257364594295,0.3837165624268284,0.000892161966731936
2.0169999999999515,0.0035336836548889913,0.006811029768225484,0.005672683641055462,0.00750969238001793,0.38264874166267543,0.0008895931864082073
2.017999999999952,0.0035561694279882343,0.006797412160577147,0.005652384071511755,0.007489229970285738,0.3815413912438435,0.0008869863989467529
2.018999999999952,0.0035777159331416225,0.006783518377523803,0.005631038421879878,0.007466273195276379,0.38039451322932377,0.0008843431122785856
2.019999999999952,0.0035982827692961792,0.006769368236382212,0.00560866255611187,0.007440860693959262,0.3792083792257182,0.0008816652668708166
2.020999999999951,0.0036178310824329677,0.0067549822576380295,0.005585273609457361,0.007413034969773231,0.3779835279113213,0.0008789552285283847
2.0219999999999514,0.0036363236505265835,0.006740381602041061,0.005560889968698951,0.007382842297564063,0.3767207617438797,0.0008762157798850276
2.022999999999951,0.0036537249658262264,0.0067255880060359775,0.005535531250676102,0.007350332624167327,0.3754211428716914,0.0008734501106230179
2.023999999999951,0.0036700013142162394,0.006710623715774014,0.005509218279152953,0.0073155594628672585,0.3740859882729811,0.000870661806470884
2.0249999999999506,0.0036851208514055342,0.006695511419953317,0.005481973060089593,0.007278579781977233,0.3727168641525378,0.0008678548370351154
2.025999999999951,0.0036990536756919723,0.0066802741817396675,0.005453818755384343,0.007239453887806049,0.371315579627761,0.0008650335425241841
2.0269999999999504,0.0037117718970455377,0.006664935370014739,0.005424779655156916,0.007198245302287948,0.3698841797389362,0.0008622026194275453
2.0279999999999507,0.0037232497022608585,0.006649518590192785,0.005394881148643048,0.007155020635562188,0.3684249378208241,0.0008593671052141654
2.02899999999995,0.0037334634159395027,0.006634047614834898,0.005364149693765485,0.007109849453787731,0.3669403472744157,0.0008565323621173248
2.0299999999999505,0.003742391557078243,0.0066185463142781845,0.005332612785441164,0.007062804142476561,0.3654331127790118,0.0008537040600726573
2.03099999999995,0.003750014891056505,0.006603038587486132,0.005300298922675883,0.0070139597656300795,0.36390614098552604,0.0008508881588780123
2.0319999999999503,0.0037563164768352323,0.006587548293317192,0.005267237574494125,0.006963393920963249,0.36236253073205305,0.0008480908896429577
2.0329999999999497,0.0037612817091968514,0.006572099182396935,0.005233459144750126,0.00691118659150646,0.360805562822519,0.0008453187355952491
2.03399999999995,0.0037648983558774963,0.0065567148297695456,0.005198994935862201,0.00685741999387753,0.35923868940893344,0.0008425784123134245
2.034999999999949,0.003767156589461829,0.00654141856848992,0.005163877111508882,0.006802178423518293,0.35766552301743515,0.000839876847452772
2.03599999999995,0.0037680490139318907,0.006526233424303353,0.005128138658320822,0.006745548097188843,0.356089825257783,0.000837221160033382
2.0369999999999493,0.003767570685783325,0.00651118205154943,0.005091813346600945,0.006687616993006328,0.35451549525511505,0.0008346186393556061
2.0379999999999496,0.0037657191296387783,0.006496286670419045,0.005054935690107801,0.006628474688306448,0.3529465578418113,0.0008320767236086926
2.038999999999949,0.0037624943483053125,0.006481569005698305,0.005017540904940667,0.006568212195599295,0.3513871515462977,0.0008296029782344475
2.0399999999999494,0.003757898827236983,0.006467050227136574,0.004979664867569245,0.006506921796883012,0.34984151641463174,0.0008272050741079705
2.040999999999949,0.0037519375333783045,0.0064527508915774336,0.004941344072045827,0.006444696876574747,0.3483139816996334,0.0008248907655937579
2.041999999999949,0.0037446179083800704,0.00643869088698841,0.00490261558643033,0.006381631753314248,0.3468089534511416,0.0008226678685358283
2.0429999999999486,0.0037359498561861156,0.00642488937852058,0.004863517008445942,0.006317821510898031,0.3453309020397183,0.0008205442382357102
2.043999999999949,0.003725945725001434,0.006411364756722905,0.004824086420373244,0.006253361828610912,0.3438843496448755,0.0008185277474728174
2.0449999999999484,0.003714620283661648,0.006398134588027677,0.0047843623431811375,0.006188348811229767,0.3424738577377489,0.000816626264616797
2.0459999999999487,0.0037019906924391816,0.006385215567614353,0.0047443836898913485,0.006122878818981375,0.34110401458714684,0.000814847631881969
2.046999999999948,0.003688076468341574,0.006372623474750377,0.004704189718176722,0.006057048297736494,0.33977942281706736,0.0008131996437712259
2.0479999999999485,0.0036728994449800358,0.006360373130702413,0.004663819982204199,0.005990953609723322,0.3385046870429709,0.0008116900257565732
2.048999999999948,0.0036564837271146735,0.0063484783593044285,0.004623314283747642,0.005924690865041324,0.3372844016132254,0.0008103264132420043
2.0499999999999483,0.0036388556400174608,0.006336951950261338,0.004582712622610664,0.00585835575425372,0.3361231384811567,0.0008091163308524933
2.050999999999948,0.0036200436738302298,0.006325805625257063,0.004542055146409976,0.005792043382337216,0.3350254352321297,0.000808067172090308
2.051999999999948,0.003600078423127021,0.00631505000692797,0.004501382099774315,0.005725848104273146,0.3339957832891034,0.0008071861793983336
2.0529999999999475,0.0035789925219105157,0.006304694590758411,0.004460733773015937,0.005659863362576549,0.33303861631911,0.0008064804246680989
2.053999999999948,0.0035568205742797644,0.0062947477199528775,0.004420150450332071,0.005594181527072297,0.33215829886206455,0.0008059567902291678
2.054999999999948,0.003533599081010583,0.006285216563340199,0.004379672357598616,0.0055288937372354715,0.3313591152022318,0.0008056219503543989
2.055999999999948,0.0035093663622920443,0.006276107096364618,0.004339339609824852,0.005464089747407436,0.3306452585016376,0.0008054823533141419
2.056999999999947,0.0034841624768716874,0.006267424085215063,0.004299192158342409,0.005399857775190707,0.3300208202137373,0.0008055442040103549
2.0579999999999474,0.003458029137871211,0.006259171074138816,0.004259269737803627,0.005336284353307655,0.32948977979472943,0.0008058134472191762
2.058999999999947,0.003431009625536926,0.006251350375979601,0.00421961181306435,0.005273454185193603,0.32905599472896835,0.0008062957514689269
2.059999999999947,0.0034031486971899806,0.006243963065970911,0.004180257526024509,0.0052114500045760005,0.3287231908839762,0.000806996493578524
2.0609999999999467,0.0033744924946339863,0.006237008978802429,0.004141245642502943,0.0051503524392791725,0.32849495320960226,0.0008079207438795991
2.061999999999947,0.0033450884492756674,0.006230486708963968,0.004102614499225501,0.005090239879478199,0.32837471679491226,0.0008090732521436646
2.0629999999999464,0.0033149851852106948,0.006224393614353759,0.004064401951006202,0.005031188350617669,0.32836575829543924,0.0008104584342352545
2.0639999999999468,0.0032842324205266276,0.006218725823124733,0.004026645318199165,0.004973271391197379,0.328471187742529,0.000812080359510088
2.064999999999946,0.0032528808670762416,0.006213478243731956,0.003989381334500406,0.00491655993561842,0.3286939407457225,0.0008139427389758746
2.0659999999999465,0.0032209821289723895,0.0062086445781391955,0.0039526460951821085,0.004861122202268399,0.3290367710984223,0.0008160489142332989
2.066999999999946,0.003188588600054925,0.006204217338144322,0.0039164750058551115,0.004807023587010503,0.3295022437963846,0.0008184018472116095
2.0679999999999463,0.00315575336057533,0.006200187864781598,0.0038809027318638866,0.004754326562226026,0.33009272847778043,0.0008210041107127154
2.0689999999999458,0.003122530073337548,0.006196546350756392,0.0038459631484280047,0.004703090581542848,0.33081039329267015,0.0008238578797755195
2.069999999999946,0.0030889728795250116,0.006193281865865366,0.003811689291647052,0.004653371990369045,0.3316571992088501,0.0008269649238710748
2.0709999999999456,0.0030551362944355297,0.006190382385354751,0.003778113310484547,0.004605223942340097,0.33263489476024377,0.0008303265999371519
2.071999999999946,0.003021075103336678,0.006187834821170339,0.003745266419842049,0.004558696321782195,0.33374501124335876,0.0008339438462596913
2.0729999999999453,0.002986844257647478,0.00618562505604947,0.003713178854827645,0.004513835672294879,0.3349888583667417,0.0008378171772079753
2.0739999999999457,0.002952498771648317,0.006183737980397951,0.003681879826315335,0.004470685131556043,0.33636752035774714,0.0008419466788278859
2.074999999999945,0.0029180936199148097,0.006182157531886006,0.0036513974778866736,0.004429284372448603,0.33788185253024416,0.000846332005296933
2.075999999999945,0.0028836836356715082,0.0061808667376878354,0.0036217588442436894,0.004389669550600721,0.3395324783160927,0.0008509723762426835
2.076999999999945,0.0028493234102580384,0.006179847759280396,0.0035929898111852336,0.004351873258419377,0.34131978676233,0.0008558665749253727
2.077999999999945,0.0028150671938974962,0.006179081939707303,0.003565115077242395,0.00431592448568506,0.34324393049507723,0.0008610129472814246
2.0789999999999447,0.002780968797950475,0.006178549853203627,0.0035381581170702814,0.004281848586766563,0.3453048241502509,0.0008664094018240782
2.079999999999945,0.002747081498833072,0.006178231357065939,0.003512141146689966,0.004249667254508694,0.3475021432702658,0.0008720534103942178
2.0809999999999444,0.002713457943769165,0.006178105645639576,0.0034870850906684623,0.004219398500840989,0.3498353236650159,0.0008779420097526508
2.081999999999945,0.002680150058543375,0.006178151306285416,0.0034630095513177657,0.004191056644148319,0.3523035612345075,0.0008840718040045643
2.082999999999944,0.0026472089574128997,0.0061783463771830464,0.0034399327799907262,0.004164652303438486,0.35490581224961326,0.000890438967844621
2.083999999999945,0.0026146848553319645,0.006178668406827881,0.0034178716505537375,0.004140192399334591,0.3576407940865216,0.000897039250609504
2.084999999999944,0.0025826269826338373,0.0061790945150806955,0.0033968416351146534,0.0041176801619144205,0.3605069864096674,0.0009038679811239205
2.0859999999999443,0.0025510835023078325,0.006179601455625871,0.003376856782084897,0.004097115145410699,0.3635026327973316,0.0009109200733230636
2.086999999999944,0.0025201014300002367,0.006180165679682508,0.0033579296966463226,0.004078493249776017,0.3666257428036989,0.0009181900326359192
2.087999999999944,0.0024897265568592478,0.006180763400794372,0.0033400715236848004,0.004061806749103806,0.36987409445080993,0.0009256719631123677
2.088999999999944,0.0024600033753369934,0.006181370660503603,0.0033232919332422677,0.00404704432688431,0.3732452371433285,0.0009333595752757304
2.089999999999944,0.0024309750080536417,0.0061819633946894334,0.0033075991085300908,0.0040341911180625635,0.3767364949982925,0.0009412461946827329
2.090999999999944,0.0024026831398209388,0.006182517500332586,0.00329299973653656,0.0040232287578516575,0.3803449705811297,0.0009493247711690554
2.091999999999944,0.002375167952915415,0.006183008902449163,0.0032794990012517005,0.004014135437240015,0.38406754903838386,0.000957587888757173
2.092999999999943,0.0023484680656838505,0.0061834136209262805,0.003267100579522959,0.004006885965117466,0.3879009026168993,0.0009660277762033883
2.0939999999999435,0.002322620474556643,0.006183707836986781,0.0032558066395436958,0.0040014518369280196,0.39184149555860487,0.0009746363181587962
2.094999999999943,0.002297660499536706,0.006183867959008955,0.0032456178419668366,0.0039978013097439246,0.39588558935939633,0.0009834050669191604
2.0959999999999432,0.0022736217332249968,0.006183870687428395,0.003236533343626559,0.003995899483639477,0.4000292483798071,0.0009923252547373836
2.0969999999999427,0.0022505359934348796,0.006183693078446387,0.0032285508038451564,0.003995708389229237,0.4042683457941477,0.001001387806670194
2.097999999999943,0.0022284332794409827,0.006183312606268556,0.0032216663932962248,0.003997187081220925,0.40859856986363713,0.0010105833539282775
2.0989999999999425,0.002207341731900318,0.006182707223594099,0.0032158748053900442,0.004000291737817647,0.41301543051793377,0.0010199022476977168
2.099999999999943,0.00218728759647632,0.006181855420076918,0.0032111692701417382,0.004004975765790696,0.41751426622852056,0.0010293345733996338
2.1009999999999422,0.0021682951911868643,0.0061807362784885985,0.003207541570475464,0.004011189911029122,0.4220902511566138,0.0010388701653554133
2.1019999999999426,0.0021503868774901498,0.006179329528335747,0.00320498206091597,0.0040188823743584024,0.4267384025575451,0.0010484986218238653
2.102999999999942,0.0021335830351143408,0.006177615596718238,0.003203479688616117,0.004027998932406821,0.4314535884229477,0.0010582093203775039
2.1039999999999424,0.0021179020406285193,0.006175575656257464,0.0032030220166731397,0.004038483063283574,0.436230535341681,0.0010679914335831116
2.104999999999942,0.0021033602497467978,0.00617319166996586,0.0032035952496877796,0.004050276076819762,0.4410638365604643,0.001077833944954343
2.105999999999942,0.00208997198335118,0.0061704464329596885,0.0032051842615215447,0.004063317249109301,0.4459479602256904,0.0010877256651440294
2.1069999999999416,0.0020777495172136624,0.006167323610939215,0.003207772625204175,0.004077543961075541,0.4508772577887773,0.0010976552483461005
2.107999999999942,0.0020667030753939507,0.006163807775372323,0.0032113426449404256,0.004092891840776671,0.4558459725585217,0.0011076112088797762
2.1089999999999414,0.0020568408272871206,0.006159884435330241,0.0032158753901614726,0.0041092949091537205,0.4608482483851421,0.0011175819379284377
2.1099999999999417,0.0020481688882954302,0.006155540065935808,0.003221350731565522,0.004126685728913976,0.46587813846204207,0.0011275557204087322
2.110999999999941,0.0020406913240992295,0.006150762133393878,0.0032277473790940183,0.004144995556232129,0.4709296142328218,0.0011375207519462437
2.111999999999941,0.0020344101585032487,0.006145539116572759,0.003235042921790602,0.004164154494941003,0.4759965743927932,0.0011474651559376997
2.112999999999941,0.0020293253848330155,0.006139860525110537,0.003243213869489977,0.0041840916528707185,0.4810728539762762,0.0011573770006852457
2.1139999999999413,0.002025434980854129,0.0061337169140306,0.0032522356962787413,0.0042047352999840075,0.4861522335232064,0.0011672443165926473
2.1149999999999407,0.00202273492718222,0.006127099894877907,0.003262082885667416,0.004226013027942209,0.49122844832093265,0.0011770551134185553
2.115999999999941,0.0020212192291474253,0.0061200021434226586,0.003272728977407766,0.004247851910724138,0.4962951977192963,0.0011867973975853252
2.1169999999999405,0.0020208799420705767,0.006112417404014601,0.003284146615889986,0.004270178665907652,0.5013461545189155,0.0011964591895460024
2.117999999999941,0.002021707199903396,0.0061043404907008365,0.0032963076000548136,0.004292919816213036,0.5063749744337929,0.0012060285412133186
2.1189999999999403,0.002023689247178913,0.006095767285240928,0.0033091829347546954,0.004316001850900079,0.5113753056298443,0.0012154935534567086
2.1199999999999406,0.0020268124742136816,0.006086694732165692,0.0033227428834961513,0.004339351386603435,0.5163407983408963,0.0012248423936739245
2.12099999999994,0.0020310614554964776,0.006077120831038201,0.0033369570224892516,0.004362895327191994,0.521265114563398,0.0012340633134424453
2.1219999999999404,0.0020364189911948913,0.006067044626084288,0.0033517942959227116,0.004386561022236068,0.5261419378306105,0.001243144666256071
2.12299999999994,0.002042866151704879,0.006056466193368705,0.0033672230723755326,0.004410276423676071,0.5309649830662933,0.0012520749253494869
2.12399999999994,0.002050382325163935,0.006045386625696924,0.003383211202265236,0.004433970240295014,0.5357280065169254,0.001260842701611283
2.12499999999994,0.0020589452678429036,0.006033808015422422,0.00339972607622495,0.004457572089608616,0.5404248157603178,0.0012694367615843694
2.12599999999994,0.0020685311573268245,0.006021733435336324,0.0034167346842906305,0.004481012646790757,0.5450492797871247,0.00127784604554831
2.1269999999999394,0.002079114648389079,0.006009166917813903,0.003434203675769343,0.004504223790256731,0.5495953391502121,0.0012860596856765817
2.12799999999994,0.002090668931461307,0.0059961134323867765,0.003452099419652749,0.004527138743526701,0.5540570161751139,0.0012940670242575225
2.128999999999939,0.00210316579359698,0.0059825788619080455,0.0034703880654329946,0.004549692212994758,0.558428425222892,0.0013018576319648195
2.1299999999999395,0.00211657568182595,0.005968569977469941,0.003489035604178655,0.004571820521224441,0.5627037829946745,0.0013094213261572673
2.130999999999939,0.002130867768793859,0.0059540944122254864,0.0035080079297284475,0.004593461735390973,0.5668774188650699,0.0013167481891850244
2.13199999999994,0.0021460100205794703,0.005939160634251954,0.0035272708998619236,0.004614555790484882,0.5709437852296159,0.0013238285866721618
2.1329999999999387,0.0021619692665761636,0.005923777918580519,0.003546790397306705,0.004635044606888691,0.5748974678494191,0.0013306531857435364
2.133999999999939,0.002178711271321262,0.005907956318503331,0.003566532390443633,0.00465487220193918,0.5787331961741792,0.0013372129731581389
2.1349999999999385,0.002196200808149695,0.005891706636255374,0.0035864629935744075,0.0046739847951022175,0.5824458536227584,0.0013434992733079142
2.135999999999939,0.0022144017345465043,0.005875040393154575,0.0036065485266197376,0.0046923309064181365,0.5860304877984672,0.0013495037660377059
2.1369999999999383,0.002233277069070384,0.005857969799270246,0.00362675557411988,0.004709861447921588,0.5894823206142252,0.0013552185042375554
2.1379999999999386,0.0022527890697187376,0.005840507722678657,0.0036470510434091358,0.0047265298077923245,0.5927967583007839,0.0013606359311563033
2.138999999999938,0.002272899313602106,0.0058226676583545715,0.0036674022218366907,0.0047422919270463946,0.595969401269202,0.0013657488973793032
2.1399999999999384,0.002293568777793165,0.005804463696737469,0.0036877768329065005,0.004757106368628668,0.5989960537967923,0.0013705506774108578
2.140999999999938,0.0023147579212100156,0.0057859104920025255,0.003708143091205549,0.004770934378806315,0.6018727335038084,0.0013750349857964994
2.141999999999938,0.002336426767388891,0.005767023230057134,0.0037284697559893712,0.004783739940789528,0.6045956805861997,0.001379195992716408
2.1429999999999376,0.002358534987994888,0.005747817596279588,0.0037487261832934798,0.004795489820525493,0.6071613667678256,0.00138302833897675
2.143999999999938,0.002381041986916505,0.005728309743010283,0.0037688823764452286,0.004806153604631839,0.6095665039335604,0.0013865271503205802
2.1449999999999374,0.002403906984781582,0.005708516256801666,0.0037889090348549237,0.00481570373045515,0.6118080524028291,0.0013896880509755305
2.1459999999999377,0.0024270891037295396,0.005688454125430533,0.0038087776009747857,0.004824115508264368,0.6138832288014034,0.001392507176351991
2.146999999999937,0.002450547452264428,0.005668140704675963,0.0038284603053227186,0.004831367135611735,0.6157895134879021,0.0013949811848029234
2.147999999999937,0.002474241210009794,0.00564759368486914,0.0038479302094852766,0.004837439703923627,0.6175246574905183,0.0013971072683589265
2.148999999999937,0.0024981297121768756,0.005626831057227485,0.003867161247028929,0.004842317197406156,0.619086688909328,0.0013988831623556201
2.1499999999999373,0.00252217253355286,0.005605871079998566,0.003886128262259059,0.004845986484372142,0.6204739187405113,0.0014003071538780483
2.1509999999999367,0.002546329571810135,0.0055847322444573695,0.0039048070467691607,0.004848437301121404,0.6216849460812633,0.0014013780889551464
2.151999999999937,0.002570561129931658,0.005563433240820105,0.003923174373722918,0.004849662228546552,0.6227186626779652,0.0014020953784474562
2.1529999999999365,0.0025948279975437664,0.005541992924151022,0.003941208029808578,0.004849656661686306,0.6235742567848385,0.001402459002581156
2.153999999999937,0.002619091530941576,0.005520430280343418,0.003958886844803633,0.004848418772500899,0.6242512163051946,0.0014024695140910093
2.1549999999999363,0.002643313731587751,0.005498764392252952,0.003976190718685883,0.004845949466184899,0.6247493311918888,0.001402128039943533
2.1559999999999366,0.0026674573228627606,0.005477014406057535,0.00399310064622555,0.0048422523313552,0.6250686950872054,0.0014014362816161861
2.156999999999936,0.0026914858248393483,0.005455199497910406,0.004009598738995608,0.004837333584462811,0.625209706185043,0.001400396513913452
2.1579999999999364,0.0027153636268529946,0.005433338840945419,0.004025668244733268,0.004831202008776015,0.6251730673002442,0.001399011582303499
2.158999999999936,0.0027390560576364843,0.005411451572681158,0.004041293563986841,0.0048238688882755835,0.624959785131871,0.0013972848987633638
2.159999999999936,0.0027625294527876187,0.005389556762859581,0.004056460263989051,0.004815347936793004,0.6245711687096118,0.0013952204361259545
2.160999999999936,0.0027857512193456974,0.005367673381748113,0.0040711550897141275,0.004805655222711108,0.624008827015428,0.0013928227209271545
2.161999999999936,0.0028086898972625824,0.005345820268927464,0.004085365972099231,0.004794809089538959,0.6232746657758104,0.0013900968247580964
2.1629999999999354,0.0028313152175654223,0.005324016102588742,0.004099082033429946,0.0047828300726675465,0.62237088342352,0.0013870483541310685
2.163999999999936,0.0028535981570155682,0.005302279369359018,0.004112293589900327,0.004769740812610028,0.6212999662315182,0.001383683438873442
2.164999999999935,0.002875510989073478,0.005280628334676566,0.004124992151368331,0.004755565965027328,0.6200646826259454,0.0013800087190690747
2.1659999999999355,0.0028970273309842387,0.005259081013740792,0.004137170418332842,0.0047403321078377395,0.6186680766892472,0.001376031330570986
2.166999999999935,0.002918122186803874,0.005237655143074251,0.004148822276169123,0.004724067645706504,0.6171134608687571,0.0013717588891177122
2.167999999999936,0.0029387719861928125,0.005216368152750069,0.004159942786671286,0.0047068027122079146,0.6154044079106021,0.0013671994730921008
2.1689999999999348,0.002958954618807635,0.005195237139350601,0.004170528176963318,0.004688569069950059,0.6135447420439349,0.0013623616049704033
2.169999999999935,0.0029786494641267894,0.005174278839725442,0.004180575825853571,0.004669400008947293,0.6115385294460356,0.001357254231519841
2.1709999999999345,0.00299783741655746,0.005153509605611502,0.004190084247717387,0.004649330243524253,0.6093900680240699,0.0013518867028106147
2.171999999999935,0.0030165009056961995,0.0051329453791666224,0.004199053073997815,0.004628395808031202,0.6071038765537878,0.00134626875011651
2.1729999999999343,0.0030346239116654304,0.005112601669457561,0.004207483032418744,0.00460663395164848,0.6046846832191185,0.0013404104627834437
2.1739999999999347,0.003052191975503059,0.005092493529931554,0.0042153759240082,0.004584083032549463,0.6021374135996839,0.0013343222641518703
2.174999999999934,0.003069192204634802,0.005072635536890344,0.0042227345980316985,0.004560782411685914,0.5994671781559423,0.0013280148866242042
2.1759999999999344,0.0030856132734914626,0.005053041768978566,0.004229562924936395,0.004536772346450194,0.5966792592640695,0.0013214993459744282
2.176999999999934,0.0031014454193572694,0.005033725787695663,0.00423586576740574,0.004512093884463762,0.5937790978544932,0.0013147869149998657
2.177999999999934,0.003116680433555898,0.005014700618942304,0.004241648949621599,0.004486788757736376,0.5907722797089269,0.0013078890966185793
2.1789999999999337,0.0031313116480959713,0.004995978735613257,0.004246919224831285,0.004460899277433911,0.5876645214708208,0.0013008175965167998
2.179999999999934,0.003145333917918642,0.00497757204124914,0.004251684241314174,0.00443446822948833,0.5844616564236255,0.0012935842954488947
2.180999999999933,0.0031587435989039493,0.00495949185475563,0.004255952506840584,0.004407538771274744,0.5811696200902844,0.0012862012212927361
2.1819999999999338,0.00317153852180865,0.004941748896198353,0.004259733351708568,0.004380154329571643,0.5777944357059447,0.0012786805209599082
2.182999999999933,0.003183717962322696,0.0049243532736794144,0.004263036890440164,0.0043523585000094945,0.5743421996140525,0.0012710344322562526
2.1839999999999336,0.003195282607445197,0.004907314471300486,0.004265873982213965,0.004324194948201148,0.5708190666339963,0.0012632752557859073
2.184999999999933,0.003206234518394668,0.004890641338214196,0.004268256190113405,0.0042957073127350386,0.56723123544641,0.0012554153269862724
2.1859999999999333,0.0032165770902843555,0.004874342078767341,0.00427019573927271,0.004266939110200673,0.5635849340402009,0.0012474669883797878
2.1869999999999328,0.003226315008800996,0.004858424243740267,0.004271705474010343,0.004237933642401649,0.5598864052633018,0.0012394425621222334
2.187999999999933,0.0032354542041287565,0.004842894722693589,0.0042727988140494775,0.004208733905902456,0.5561418925171016,0.0012313543229241536
2.188999999999933,0.003244001802355885,0.004827759737435039,0.004273489709937432,0.004179382504044206,0.5523576256325078,0.0012232144714184538
2.189999999999933,0.0032519660745929505,0.0048130248366254555,0.0042737925977851775,0.004149921561560352,0.5485398069636986,0.0012150351080431688
2.1909999999999323,0.0032593563840241794,0.004798694891544879,0.004273722353453912,0.004120392641916925,0.5446945977338061,0.0012068282075043172
2.1919999999999327,0.003266183131106895,0.004784774093045128,0.004273294246317251,0.004090836667494788,0.5408281046649902,0.001198605593881014
2.192999999999932,0.003272457697127024,0.004771265949719293,0.004272523892730979,0.004061293842725707,0.5369463669236106,0.001190378916429824
2.1939999999999324,0.00327819238631678,0.0047581732873230335,0.004271427209341667,0.004031803580286943,0.5330553434094938,0.0011821596261425197
2.194999999999932,0.003283400366736561,0.004745498249483884,0.004270020366364306,0.004002404430452708,0.5291609004166701,0.001173958953106662
2.195999999999932,0.0032880956101267547,0.004733242299733486,0.004268319740956327,0.003973134013696592,0.5252687996914153,0.0011657878847171576
2.196999999999932,0.0032922928309325906,0.004721406224893595,0.004266341870812809,0.003944028956633446,0.521384686911988,0.0011576571447810997
2.197999999999932,0.0032960074247071797,0.004709990139843187,0.00426410340810664,0.0039151248313814635,0.5175140806130849,0.0011495771735572221
2.1989999999999315,0.003299255406092211,0.004698993493687457,0.004261621073894562,0.0038864560984161202,0.5136623615766875,0.001141558108766056
2.199999999999932,0.00330205334657497,0.004688415077347836,0.004258911613111963,0.003858056052974254,0.5098347627095884,0.0011336097676050475
2.2009999999999312,0.0033044183122160043,0.004678253032583516,0.004255991750280439,0.0038299567750552884,0.5060363594264033,0.0011257416297986802
2.201999999999932,0.0033063678015376884,0.004668504862447309,0.004252878146053093,0.0038021890830554793,0.5022720605553699,0.001117962821709765
2.202999999999931,0.0033079196837577005,0.0046591674431671615,0.004249587354719983,0.0037747824910628067,0.49854659978272187,0.0011102821015366636
2.203999999999932,0.0033090921375411074,0.004650237037432304,0.004246135782788898,0.003747765169831622,0.4948645276500259,0.0011027078456155844
2.204999999999931,0.003309903590436735,0.004641709309057173,0.004242539648748024,0.0037211639114499056,0.49123020411752516,0.0010952480358468264
2.205999999999931,0.003310372659153755,0.004633579338991766,0.004238814944110498,0.0036950040977071245,0.4876477917052789,0.0010879102482606784
2.2069999999999306,0.0033105180908261536,0.004625841642649594,0.004234977395835395,0.0036693096721658637,0.4841212492226729,0.0010807016427365336
2.207999999999931,0.0033103587054056083,0.004618490188529465,0.00423104243021485,0.0036441031159377703,0.4806543260956523,0.0010736289538870014
2.2089999999999304,0.003309913339317455,0.004611518418113657,0.004227025138309444,0.003619405427159682,0.4772505572997195,0.0010666984831164533
2.2099999999999307,0.003309200790508728,0.004604919267024398,0.00422294024300824,0.003595236104159962,0.47391325890535985,0.0010599160918600557
2.21099999999993,0.0033082397650164934,0.004598685187416842,0.00421880206778296,0.0035716131322998347,0.4706455242411822,0.0010532871960077835
2.2119999999999305,0.003307048825178497,0.0045928081715730885,0.0042146245072064185,0.0035485529744671267,0.46745022067879755,0.001046816761515217
2.21299999999993,0.0033056463396055648,0.004587279776653175,0.0042104209993032715,0.003526070565194271,0.4643299870423452,0.0010405093012010752
2.2139999999999302,0.0033040504350260493,0.00458209115054572,0.004206204499800416,0.0035041793083693223,0.46128723164451735,0.0010343688727297348
2.2149999999999297,0.00330227895010439,0.004577233058756903,0.004201987458336902,0.0034828910785024074,0.45832413094977975,0.0010283990777750095
2.21599999999993,0.0033003493913269766,0.00457269591226967,0.004197781796684963,0.0034622162255072662,0.4554426288641918,0.001022603062360002
2.216999999999929,0.003298278891040032,0.0045684697963046025,0.0041935988890250435,0.0034421635829535325,0.4526444366498981,0.00101698351836538
2.21799999999993,0.003296084167715198,0.004564544499911765,0.00418944954430956,0.0034227404797414836,0.4499310334610236,0.0010115426861965603
2.2189999999999293,0.003293781488511269,0.004560909546324845,0.004185343990743549,0.0034039527551510524,0.44730366749636785,0.0010062823586001017
2.2199999999999296,0.003291386634191374,0.004557554224007806,0.004181291862405929,0.003385804777213575,0.4447633577629274,0.0010012038856155008
2.220999999999929,0.003288914866450146,0.004554467618317456,0.004177302188033961,0.003368299464351151,0.442310896442873,0.0009963081806492217
2.2219999999999294,0.0032863808976965688,0.004551638643697156,0.004173383381994184,0.0033514383102199443,0.4399468518552143,0.0009915957276526912
2.222999999999929,0.0032837988633351903,0.004549056076303464,0.004169543237461276,0.0033352214116866646,0.4376715720019544,0.000987066589385494
2.223999999999929,0.003281182296579902,0.004546708586957383,0.004165788921821602,0.003319647499857571,0.4354851886870779,0.0009827204167401039
2.2249999999999286,0.0032785441058335303,0.004544584774304483,0.004162126974310814,0.003304713974077602,0.4333876221952042,0.000978556459100963
2.225999999999929,0.003275896554660616,0.004542673198071342,0.004158563305886109,0.003290416938811816,0.43137858651523464,0.0009745735757086865
2.2269999999999284,0.003273251244380044,0.00454096241231445,0.004155103201328407,0.0032767512433178343,0.429457595092831,0.0009707702479940321
2.2279999999999287,0.0032706190992987712,0.004539440998575478,0.004151751323562031,0.003263710524015095,0.4276239670941239,0.000967144592845458
2.228999999999928,0.003268010354605583,0.004538097598862278,0.004148511720173098,0.00325128724945111,0.42587683416166594,0.0009636943767702921
2.2299999999999285,0.003265434546939347,0.0045369209483774355,0.004145387832096253,0.0032394727677617376,0.42421514764230384,0.0009604170309072461
2.230999999999928,0.003262900507641413,0.004535899907907862,0.004142382504428995,0.0032282573565175776,0.42263768626530546,0.0009573096668464128
2.2319999999999283,0.0032604163586974285,0.004535023495779056,0.004139497999318457,0.00321763027484242,0.4211430642476965,0.0009543690932102704
2.232999999999928,0.0032579895113640394,0.004534280919268145,0.004136736010852444,0.003207579817684609,0.4197297398023204,0.0009515918329469255
2.233999999999928,0.0032556266674668923,0.004533661605356485,0.004134097681871919,0.003198093372115737,0.4183960240226498,0.0009489741412836435
2.2349999999999275,0.0032533338233452654,0.004533155230692963,0.004131583622608567,0.0031891574755239876,0.41714009011684133,0.0009465120242862158
2.235999999999928,0.0032511162764061975,0.004532751750625142,0.004129193931037269,0.0031807578755614256,0.41595998296195164,0.0009442012579664038
2.236999999999928,0.0032489786342408673,0.004532441427141772,0.004126928214820497,0.00317287959169575,0.4148536289476289,0.0009420374078769252
2.237999999999928,0.0032469248262463244,0.004532214855556374,0.00412478561470812,0.003165506978206434,0.41381884607702457,0.0009400158491301687
2.238999999999927,0.003244958117688917,0.004532062989746181,0.004122764829243156,0.0031586237884542244,0.4128533542911403,0.0009381317867738882
2.2399999999999274,0.0032430811261372466,0.004531977165750864,0.004120864140613833,0.003152213240243564,0.4119547859813235,0.0009363802764552425
2.240999999999927,0.00324129584018794,0.004531949123525128,0.00411908144148564,0.0031462580820846415,0.4111206966531668,0.0009347562452995216
2.241999999999927,0.0032396036403959626,0.004531971026632692,0.004117414262645795,0.0031407406601541028,0.4103485757036713,0.000933254512929366
2.2429999999999266,0.0032380053223149616,0.004532035479664092,0.0041158598012931355,0.0031356429857417136,0.4096358572722699,0.0009318698125467743
2.243999999999927,0.003236501121542208,0.00453213554316049,0.004114414949809284,0.003130946802961901,0.40897993112522035,0.0009305968119973694
2.2449999999999264,0.003235090740652758,0.004532264745831432,0.0041130763248518,0.003126633656499714,0.4083781535319174,0.0009294301347367234
2.2459999999999267,0.003233773377899656,0.004532417093876341,0.0041118402966140374,0.0031226849591534244,0.407827858090771,0.0009283643806144125
2.246999999999926,0.003232547757547503,0.004532587077256732,0.004110703018106207,0.0031190820589273114,0.4073263664613344,0.0009273941463924125
2.2479999999999265,0.003231412161698646,0.004532769672805586,0.0041096604543224,0.003115806305426766,0.4068709989583548,0.0009265140459100312
2.248999999999926,0.0032303644634653636,0.004532960344103585,0.00410870841116991,0.003112839115303734,0.406459084962365,0.0009257187298086366
2.2499999999999263,0.003229402161329894,0.00453315503808689,0.0041078425640522775,0.0031101620365034896,0.40608797310041994,0.0009250029047253522
2.2509999999999257,0.0032285224145279855,0.004533350178385672,0.0041070584860116175,0.0031077568110632965,0.405755041149785,0.0009243613518673045
2.251999999999926,0.00322772207928056,0.004533542655429431,0.0041063516753439425,0.003105605436214433,0.40545770561705097,0.0009237889448755483
2.252999999999925,0.0032269977456919926,0.004533729813385174,0.004105717582607636,0.003103690223540927,0.4051934309454323,0.0009232806668914046
2.253999999999926,0.0032263457751259684,0.004533909434029696,0.004105151636946787,0.003101993855948794,0.4049597383039611,0.0009228316267396895
2.2549999999999253,0.003225762337863788,0.004534079717690737,0.004104649271652124,0.0031004994422014244,0.40475421391390537,0.0009224370741488427
2.2559999999999256,0.003225243450841406,0.004534239261432783,0.00410420594888418,0.003099190568776465,0.4045745168698254,0.0009220924139323307
2.256999999999925,0.0032247850152548516,0.004534387034700823,0.004103817183482979,0.0030980513488029406,0.40441838641490374,0.000921793219061672
2.2579999999999254,0.003224382853816506,0.004534522352664677,0.004103478565790049,0.003097066467841245,0.40428364863224997,0.0009215352425666189
2.258999999999925,0.0032240327474387888,0.004534644847528036,0.004103185783406456,0.003096221226276473,0.4041682225157828,0.0009213144282024931
2.259999999999925,0.0032237304711175063,0.0045347544380844,0.004102934641806686,0.0030955015780981102,0.4040701253864177,0.0009211269198291576
2.2609999999999246,0.003223471828785919,0.004534851297825119,0.0041027210837242594,0.0030948941658445607,0.40398747762219384,0.0009209690694516789
2.261999999999925,0.0032232526869115596,0.004534935821939913,0.004102541207220777,0.003094386351495258,0.4039185066749571,0.0009208374438804932
2.2629999999999244,0.003223069006608969,0.004535008593588352,0.004102391282349946,0.003093966243097589,0.40386155035092486,0.0009207288299773914
2.2639999999999247,0.003222916874040341,0.004535070349859723,0.004102267766328369,0.00309362271691334,0.4038150593373391,0.0009206402384639437
2.264999999999924,0.0032227925288716964,0.00453512194786613,0.004102167317124767,0.0030933454348684567,0.40377759896205834,0.0009205689062769939
2.2659999999999245,0.00322269239054544,0.004535164331440679,0.004102086805376461,0.003093124857085062,0.4037478501771096,0.0009205122974639471
