Time,LGLTMED,LRF,LADDLONG,LBF,LTA,LGM
0.0,-0.0007472886653525308,0.0007397941776213634,0.002072469388800575,0.00033760456975268007,0.004539106047146904,2.5198386195670327e-05
0.001,-0.0006653091937429054,0.0007780150772445388,0.0021658855440880617,0.00046511326571648675,0.004846047642024871,0.00014403300065179866
0.002,-0.0005837490547343188,0.0008164246216987868,0.002259142316309851,0.0005916026444251956,0.005153227919494515,0.0002625852784212744
0.003,-0.0005026575624387482,0.0008549984532862581,0.002352161173444485,0.0007169575768606219,0.005460433780083936,0.00038078402044338955
0.004,-0.00042208337722114485,0.0008937120019700745,0.002444863839033304,0.0008410630121142101,0.005767451303831364,0.0004985583417840673
0.005,-0.0003420744320152763,0.0009325405237022373,0.0025371724479233996,0.0009638041303748734,0.006074066068575612,0.0006158377638270679
0.006,-0.00026267786033485463,0.0009714591390193501,0.0026290096995246147,0.001085066496792286,0.006380063469917139,0.000732552305511579
0.007,-0.0001839399261739394,0.0010104428717746345,0.002720299007719029,0.001204736215944866,0.006685229041969242,0.0008486325734132568
0.008,-0.00010590595595775158,0.001049466687885074,0.002810964646686595,0.001322700086643365,0.0069893487780746276,0.0009640098504823733
0.009,-2.8620272680406707e-05,0.001088505533985189,0.0029009318920421895,0.0014388457568068995,0.00729220945070893,0.001078616183268103
0.01,4.78738676508995e-05,0.0011275343758901058,0.002990127156805998,0.0015530618781593832,0.0075935989298288546,0.0011923844674691646
0.011,0.00012353433715739539,0.0011665282367772003,0.0030784781218418447,0.0016652382605076472,0.007893306498950597,0.001305248531657371
0.012,0.00019832019471671398,0.0012054622349975475,0.003165913860491891,0.0017752660253742172,0.008191123168266562,0.0014171432190248255
0.013,0.0002721917419849875,0.0012443116214277698,0.003252364957209752,0.00188303775876812,0.008486841984127885,0.001528004467011411
0.014,0.00034511057672702506,0.0012830518162728006,0.003337763620048246,0.001988447662890732,0.008780258334239842,0.0016377693846787063
0.015,0.00041703964337655544,0.001321658445233803,0.0034220437868937373,0.002091391706593928,0.009071170247940531,0.001746376327708105
0.016,0.0004879432807603413,0.0013601073749643711,0.0035051412253589596,0.0021917677744329573,0.009359378690965847,0.0018537649709121156
0.017,0.0005577872669357771,0.0013983747477498258,0.0035869936262544755,0.0022894758141813205,0.009644687854147101,0.0019598763781579283
0.018,0.0006265388611085093,0.001436437015354256,0.003667540690560018,0.002384417982694416,0.009926905435531489,0.002064653069612997
0.019,0.0006941668426103224,0.0014742709719848463,0.0037467242098153906,0.0024764987900206636,0.010205842915442983,0.0021680390862346102
0.02,0.000760641546925958,0.0015118537863234886,0.0038244881398507616,0.002565625241665059,0.010481315824003619,0.0022699800514382287
0.021,0.000825934898762499,0.0015491630325745337,0.0039007786677805463,0.0026517069789151115,0.010753144000617183,0.00237042322989092
0.022,0.0008900204421595334,0.0015861767204775887,0.00397554427219349,0.0027346564171464483,0.011021151844891242,0.0024693175833851513
0.023,0.0009528733676439931,0.0016228733242368053,0.004048735776483876,0.002814388882034871,0.011285168558451438,0.0025666138237539727
0.024,0.0010144705364402075,0.0016592318103224783,0.00412030639528777,0.002890822743610321,0.011545028377094676,0.0026622644627916775
0.025,0.0010747905017524995,0.0016952316641059171,0.0041902117740177216,0.002963879548092872,0.011800570792743255,0.002756223859144864
0.026,0.0011338135271434123,0.0017308529152942533,0.004258410021530155,0.0030334841474507954,0.012051640764701147,0.002848448262137401
0.027,0.001191521602034621,0.0017660761621380806,0.004324861736007951,0.0030995648266176658,0.012298088919764182,0.0029388958524898825
0.028,0.0012478984543597285,0.001800882594390488,0.004389530024190623,0.0031620534283018672,0.012539771740778163,0.0030275267798926687
0.029,0.0013029295603990399,0.001835254014999817,0.004452380514131664,0.00322088547531881,0.01277655174326326,0.0031143031973946463
0.03,0.0013566021518267373,0.0018691728605202396,0.004513381361704076,0.0032760002903738034,0.013008297639740046,0.003199189292577448
0.031,0.001408905220001469,0.001902622220224803,0.004572503251108444,0.0033273411132216466,0.013234884491419165,0.003282151315493676
0.032,0.0014598295175330784,0.0019355858539056206,0.004629719389661146,0.003374855215127467,0.013456193846956966,0.0033631576033542106
0.033,0.001509367557161265,0.0019680482083458827,0.004685005497152659,0.0034184940105516353,0.013672113868026017,0.0034421786019533224
0.034,0.001557513607985343,0.001999994432448998,0.00473833979006949,0.003458213165979063,0.013882539441503618,0.003519186883823249
0.035,0.0016042636890862836,0.0020314103910115105,0.004789702960971787,0.0034939727058091595,0.014087372278155236,0.003594157163114331
0.036,0.001649615560582065,0.002062282677127407,0.004839078153316117,0.0035257371152175756,0.014286520997779186,0.0036670663072025382
0.037,0.0016935687121555991,0.002092598623210743,0.004886450932010951,0.003553475439896132,0.01447990120085487,0.0037378933450310328
0.038,0.0017361243490927247,0.002122346310621161,0.0049318092499907994,0.003577161382575653,0.014667435526775591,0.0038066194721951335
0.039,0.0017772853758679522,0.0021515145778746143,0.004975143411092994,0.0035967733962404907,0.014849053698757494,0.0038732280527831197
0.04,0.0018170563773195994,0.00218009302742191,0.005016446029518603,0.0036122947739544568,0.015024692555529212,0.003937704617992401
0.041,0.0018554435974637341,0.0022080720309820318,0.005055711986155268,0.0036237137352329554,0.01519429606993964,0.0040000368615535275
0.042,0.001892454916005621,0.002235442733424802,0.005092938382033705,0.003631023508909568,0.01535781535466433,0.004060214632012548
0.043,0.0019280998226147504,0.0022621970552054622,0.005128124489180629,0.003634222412452208,0.015515208655225217,0.004118229921942404
0.044,0.001962389389032938,0.002288327693359667,0.005161271699118956,0.0036333139276837883,0.01566644133056078,0.004174076854170996
0.045,0.0019953362390847567,0.0023138281210702597,0.005192383469252353,0.0036283067728585003,0.01581148582140499,0.004227751665123083
0.046,0.0020269545166574253,0.002338692585818239,0.005221465267357364,0.0036192149710408575,0.01595032160675967,0.004279252685375307
0.047,0.002057259851715075,0.002362916106132454,0.00524852451439433,0.0036060579147317593,0.01608293514877074,0.004328580317522517
0.048,0.002086269324410842,0.0023864944669585637,0.005273570525839754,0.0035888604266830137,0.016209319826337082,0.004375737011453267
0.049,0.002114001427359432,0.002409424213677946,0.005296614451739631,0.0035676528168378137,0.01632947585779016,0.004420727237134306
0.05,0.0021404760261327913,0.0024317026448188684,0.005317669215687158,0.0035424709353293698,0.01644341021298577,0.00446355745500756
0.051,0.002165714318043247,0.002453327803512152,0.0053367494529372155,0.003513356221463689,0.016551136515149296,0.004504236084106457
0.052,0.0021897387892824013,0.0024742984677506943,0.005353871447878676,0.0034803557486057066,0.016652674932811917,0.004542773467999492
0.053,0.002212573170489084,0.0024946141395172003,0.005369053071087816,0.0034435222648802055,0.016748052062164752,0.004579181838666331
0.054,0.002234242390824207,0.002514275032848039,0.005382313716179656,0.0034029142295897356,0.016837300800144832,0.004613475278406134
0.055,0.002254772530633734,0.0025332820609029762,0.005393674236660936,0.003358595845241722,0.016920460208562322,0.004645669679870827
0.056,0.0022741907727833496,0.0025516368221100267,0.005403156882972402,0.0033106370850673698,0.016997575369589235,0.0046757827043092
0.057,0.0022925253527497436,0.002569341585451964,0.005410785239891921,0.0032591137159068916,0.017068697232947374,0.004703833738102789
0.058,0.0023098055075533998,0.002586399274957865,0.005416584164455069,0.003204107316329233,0.017133882455141646,0.004729843847673282
0.059,0.002326061423616649,0.0026028134534613096,0.005420579724537135,0.0031457052898504747,0.017193193231079956,0.0047538357328433
0.06,0.002341324183628891,0.002618588305687167,0.005422799138230043,0.0030840008731141746,0.017246697118412365,0.004775833678733694
0.061,0.0023556257124987714,0.0026337286207298465,0.005423270714138491,0.003019093138898377,0.01729446685491826,0.004795863506276839
0.062,0.002368998722470818,0.0026482397739856257,0.005422023792710065,0.002951086993815869,0.017336580169266872,0.004813952521416899
0.063,0.0023814766574812027,0.0026621277085996367,0.005419088688702692,0.0028800931705753024,0.017373119585468704,0.004830129463060539
0.064,0.002393093636823333,0.002675398916484974,0.005414496634879193,0.002806228214671828,0.017404172221330106,0.00484442444984258
0.065,0.0024038843981889955,0.0026880604189682858,0.005408279727003551,0.0027296144653784975,0.017429829581235633,0.0048568689257844425
0.066,0.0024138842401464186,0.002700119747113463,0.005400470870198417,0.0026503800309142984,0.017450187343620045,0.004867495604943468
0.067,0.0024231289641150813,0.002711584921771862,0.0053911037267093745,0.0025686587576701364,0.017465345143549773,0.004876338415168838
0.068,0.0024316548158990125,0.002722464433403167,0.005380212665109895,0.002484590193378794,0.017475406350900915,0.004883432441089654
0.069,0.002439498426844929,0.0027327672217059692,0.00536783271097233,0.0023983195441180743,0.01748047784468313,0.004888813866463566
0.07,0.002446696754697736,0.002742502655092244,0.005353999499023715,0.00230999762503823,0.017480669784098374,0.004892519916012231
0.071,0.0024532870242323203,0.0027516805100358246,0.005338749226797613,0.002219780804706103,0.017476095376929554,0.004894588796863826
0.072,0.0024593066677448395,0.0027603109503223475,0.005322118609783189,0.0021278309429590444,0.01746687064583665,0.004895059639714458
0.073,0.0024647932654870003,0.0027684045062285004,0.00530414483806058,0.0020343153221610857,0.01745311419312386,0.004893972439811442
0.074,0.002469784486124101,0.0027759720536621882,0.005284865534398935,0.0019394065717529023,0.017434946964550353,0.004891367997852973
0.075,0.0024743180272946827,0.002783024793300005,0.005264318713780774,0.0018432825859884393,0.017412492012785274,0.004887287860889841
0.076,0.002478431556347888,0.00278957422976035,0.005242542744304578,0.0017461264347561553,0.017385874261133562,0.004881774263305109
0.077,0.002482162651333224,0.002795632150848158,0.005219576309407097,0.0016481262673900844,0.017355220268168225,0.004874870067938403
0.078,0.002485548742315266,0.002801210606901802,0.00519545837133758,0.0015494752093818055,0.017320657993898324,0.004866618707415593
0.079,0.002488627053083189,0.0028063218902658373,0.00517022813580701,0.0014503712519067468,0.0172823165680898,0.00485706412574278
0.08,0.002491434543322396,0.0028109785149052586,0.005143925017726038,0.0013510171340781632,0.01724032606134487,0.004846250720223654
0.081,0.0024940078513128157,0.0028151931961684987,0.005116588607936579,0.0012516202178422336,0.017194817259531023,0.004834223283759979
0.082,0.0024963832372156976,0.00281897883069909,0.005088258640836671,0.0011523923554291758,0.01714592144212484,0.004821026947596941
0.083,0.002498596527008511,0.0028223484764917186,0.005058974962799058,0.001053549749277047,0.017093770164998412,0.004806707124578838
0.084,0.002500683057125934,0.002825315333088297,0.005028777501291546,0.0009553128043458217,0.01703849504813379,0.004791309452984854
0.085,0.0025026776198627545,0.002827892721913107,0.004997706234618131,0.0008579059727401517,0.016980227568710454,0.0047748797410169675
0.086,0.0025046144095916606,0.0028300940667506393,0.004965801162210151,0.0007615575905620605,0.016919098859974755,0.004757463912011542
0.087,0.0025065269698469755,0.002831932874372374,0.004933102275404124,0.0006664997069213644,0.016855239516272994,0.004739107950443819
0.088,0.0025084481413253775,0.0028334227153176965,0.0048996495286463115,0.0005729679050414607,0.01678877940461517,0.004719857848792165
0.089,0.0025104100108548433,0.002834577204830379,0.00486548281106314,0.00048120111540901134,0.01671984748313476,0.004699759555326737
0.09,0.0025124438613814996,0.002835409983947348,0.004830641918333289,0.00039144142092611343,0.01664857162681199,0.004678858922884247
0.091,0.0025145801230209487,0.0028359347007319304,0.004795166524796497,0.0003039338540328712,0.016575078460821097,0.004657201658686267
0.092,0.0025168483252177754,0.0028361649916398856,0.004759096155740347,0.00021892618577863963,0.01649949320184079,0.004634833275253813
0.093,0.002519277050055551,0.0028361144630046752,0.0047224701598199,0.00013666870683373084,0.016421939507638404,0.004611799042466713
0.094,0.002521893886760148,0.0028357966726299867,0.004685327681582724,5.741400045131361e-05,0.01634253933521039,0.004588143940813205
0.095,0.0025247253874416528,0.0028352251114822564,0.004647707634088151,-1.858329258962063e-05,0.01626141280773415,0.004563912615872707
0.096,0.002527797024123714,0.002834413185481238,0.004609648671619547,-9.106671700807829e-05,0.016178678090554725,0.004539149334070963
0.097,0.002531133147111835,0.0028333741973905627,0.004571189162490394,-0.00015977825393916395,0.016094451276396204,0.00451389793974137
0.098,0.0025347569447526585,0.002832121328812824,0.004532367161941993,-0.00022445857965115024,0.016008846279957883,0.004488201813521938
0.099,0.0025386904046351883,0.002830667622296763,0.004493220385127674,-0.00028484733193659645,0.01592197474203472,0.004462103832118835
0.1,0.0025429542762839042,0.0028290259635697177,0.004453786180177624,-0.00034068338401590495,0.015833945943288987,0.004435646329476009
0.101,0.002547568035394357,0.0028272090639170234,0.004414101501339346,-0.0003917051257527294,0.015744866727788336,0.004408871059401591
0.102,0.0025525498496643925,0.0028252294427390996,0.004374202882191756,-0.0004376507519461578,0.015654841436405983,0.004381819159709465
0.103,0.0025579165462770626,0.0028230994103228004,0.004334126408938711,-0.0004782585574390706,0.015563971850147287,0.004354531117934924
0.104,0.0025636835810926057,0.00282083105086454,0.00429390769380213,-0.0005132672387650424,0.01547235714342638,0.004327046738677611
0.105,0.0025698650096059607,0.0028184362057808864,0.004253581848553209,-0.0005424162020429646,0.015380093847272432,0.004299405112615218
0.106,0.00257647345972377,0.0028159264573406565,0.004213183458236275,-0.0005654458768138728,0.015287275822401953,0.00427164458722032
0.107,0.0025835201064115616,0.0028133131126514468,0.004172746555148766,-0.0005820980354954388,0.015193994242051851,0.004243802739202817
0.108,0.002591014648258776,0.002810607188031168,0.0041323045931421646,-0.0005921161181070688,0.015100337584426813,0.004215916348694713
0.109,0.0025989652860072144,0.0028078193937907856,0.004091890422305706,-0.0005952455618957195,0.015006391634573122,0.004188021375192877
0.11,0.0026073787030867247,0.0028049601194494824,0.0040515362640907646,-0.0005912341354724122,0.01491223949545159,0.004160152935276577
0.111,0.0026162600481986382,0.002802039419400599,0.004011273686931253,-0.0005798322770533125,0.014817961607948953,0.004132345282116025
0.112,0.0026256129199818193,0.0027990669990481825,0.00397113358241517,-0.0005607934363869086,0.01472363577954342,0.004104631786784241
0.113,0.0026354393537895288,0.002796052201440098,0.003931146142065273,-0.0005338744199393087,0.014629337221323264,0.004077044921378587
0.114,0.002645739810600245,0.002793003994432443,0.003891340834793015,-0.0004988357389018668,0.014535138593042568,0.004049616243952092
0.115,0.0026565131680837636,0.002789930958428568,0.0038517463850983526,-0.0004554419595779787,0.014441110055885616,0.004022376385248891
0.116,0.0026677567138439716,0.0027868412747420546,0.0038123907520963836,-0.00040346205569807933,0.014347319332607189,0.003995355037232022
0.117,0.0026794661408585684,0.0027837427146353458,0.0037733011094573435,-0.0003426697622037071,0.014253831774721292,0.003968580943384107
0.118,0.0026916355451320957,0.002780642629084263,0.003734503826348088,-0.00027284393003375594,0.014160710436419033,0.0039420818907519245
0.119,0.0027042574255733286,0.0027775479393146113,0.0036960244494618484,-0.00019376888143890259,0.014068016154900359,0.003915884703696577
0.12,0.0027173226861031286,0.002774465128152225,0.003657887686220114,-0.00010523476534313361,0.013975807636802054,0.003890015239304774
0.121,0.0027308206399944903,0.0027714002322238615,0.0036201173892261287,-7.037912263683061e-06,0.013884141550394472,0.003864498384413656
0.122,0.002744739016441998,0.002768358835044739,0.0035827365420429344,0.00010101881170759887,0.013793072623200434,0.003839358054198794
0.123,0.0027590639693528176,0.002765346061029384,0.0035457672463602274,0.00021912565236716888,0.013702653744660426,0.0038146171922700976
0.124,0.0027737800883460935,0.00276236657046445,0.0035092307106047234,0.0003474656168218324,0.0136129360734326,0.003790297772214002
0.125,0.002788870411943138,0.0027594245554832587,0.0034731472400393888,0.0004862141253943279,0.013523969148881477,0.003766420800514058
0.126,0.0028043164429276814,0.0027565237370807236,0.003437536228388176,0.000635538666546679,0.013435801006283594,0.003743006320776782
0.127,0.002820098165853827,0.0027536673632044886,0.0034024161510145257,0.0007955984553643125,0.0133484782952638,0.0037200734191860335
0.128,0.0028361940666796707,0.0027508582079548123,0.003367804559674159,0.0009665440961502757,0.013262046400968053,0.0036976402311075956
0.129,0.0028525811545077107,0.0027480985719226807,0.00333371807885651,0.0011485172496824376,0.013176549567471812,0.003675723948765568
0.13,0.002869234985419676,0.002745390283692696,0.0033001724037249386,0.0013416503056878364,0.013092031022912957,0.0036543408299123887
0.131,0.0028861296884014308,0.0027427347025341035,0.003267182299662276,0.001546066061087932,0.013008533105820895,0.0036335062074132774
0.132,0.002903237993359821,0.002740132722299434,0.003234761603423193,0.0017618774045669767,0.012926097392087625,0.0036132344996624537
0.133,0.002920531261235198,0.002737584776545344,0.0032029232258875143,0.0019891870080136894,0.012844764821995888,0.0035935392217427116
0.134,0.002937979516210979,0.0027350908448845438,0.0031716791563998425,0.0022280870253842426,0.01276457582668753,0.0035744329972333374
0.135,0.002955551480017085,0.0027326504605713633,0.0031410404686720936,0.002478658799531815,0.012685570453422449,0.0035559275705658883
0.136,0.0029732146083207038,0.002730262719316745,0.003111017328217151,0.0027409725775438642,0.012607788488944983,0.003538033819824503
0.137,0.002990935129198837,0.00272792628932165,0.003081619001273334,0.003015087235122933,0.01253126958024448,0.0035207617698867163
0.138,0.0030086780836940594,0.0027256394225114344,0.003052853865170045,0.0033010500105421304,0.012456053351976689,0.0035041206057998225
0.139,0.003026407368465728,0.0027233999669474757,0.003024729420074971,0.003598896248705338,0.012382179519809721,0.0034881186862846694
0.14,0.00304408578055892,0.002721205380386004,0.0029972523020536193,0.003908649155845418,0.012309687998975014,0.003472763557253879
0.141,0.0030616750643191705,0.0027190527449485143,0.0029704282973644987,0.0042303195653984795,0.012238619007334941,0.0034580619652279498
0.142,0.003079135960482289,0.0027169387828644372,0.002944262357909516,0.004563905715594258,0.012169013162317801,0.0034440198705343516
0.143,0.0030964282574665737,0.002714859873245025,0.0029187586177595055,0.004909393039299687,0.012100911571119541,0.0034306424601842486
0.144,0.0031135108448914982,0.0027128120698465216,0.0028939204106777326,0.005266753966644943,0.012034355913641544,0.0034179341603380966
0.145,0.0031303417693437645,0.002710791119780098,0.002869750288566584,0.0056359477409505246,0.011969388517733747,0.0034058986482913903
0.146,0.0031468782924083958,0.002708792483126306,0.002846250040762795,0.006016920248463253,0.011906052426433647,0.0033945388639312706
0.147,0.003163076950977986,0.0027068113534130067,0.002823420714104986,0.006409603862402066,0.011844391457009449,0.003383857020632147
0.148,0.0031788936198466817,0.002704842678916667,0.0028012626336958208,0.006813917301812001,0.011784450251708736,0.0033738546155758476
0.149,0.003194283576587768,0.0027028811847464042,0.002779775424280736,0.007229765505723146,0.011726274320184528,0.0033645324395008944
0.15,0.0032092015687059765,0.0027009213956679036,0.002758958032165635,0.007657039523105799,0.011669910073636339,0.003355890585904068
0.151,0.003223601883048182,0.0026989576596211065,0.002738808747596062,0.008095616419101354,0.011615404850777094,0.0033479284597312236
0.152,0.0032374384174488242,0.002696984171881926,0.002719325227520105,0.008545359197992073,0.011562806935816024,0.0033406447856019453
0.153,0.0032506647545791777,0.002694994999814916,0.002700504518657262,0.009006116743354067,0.011512165568725315,0.0033340376156157673
0.154,0.0032632342379625857,0.0026929841081616652,0.0026823430807962085,0.009477723775817732,0.011463530948122793,0.003328104336788153
0.155,0.0032751000501110255,0.0026909453848098864,0.0026648368102457467,0.00996000082883868,0.011416954227141212,0.003322841678163325
0.156,0.003286215292732019,0.0026888726669911426,0.002647981063366193,0.010452754242859309,0.011372487502662182,0.003318245717649946
0.157,0.0032965330689492768,0.0026867597678594812,0.002631770680114536,0.010955776178216324,0.011330183798280996,0.0033143118886267914
0.158,0.0033060065674753586,0.002684600503406023,0.0026162000075461074,0.011468844647122766,0.01129009704135687,0.0033110349863700577
0.159,0.0033145891486690586,0.0026823887196643567,0.0026012629232267663,0.011991723565024454,0.011252282034502181,0.0033084091743612425
0.16,0.0033222344324033187,0.002680118320160077,0.0025869528585200476,0.012524162821600572,0.011216794421868286,0.0033064279905418584
0.161,0.003328896387661324,0.0026777832935580624,0.002573262821720803,0.013065898371646099,0.011183690650581668,0.0033050843535855396
0.162,0.0033345294237696584,0.002675377741464396,0.002560185421010128,0.013616652346040035,0.011153027927667925,0.0033043705692581108
0.163,0.0033390884831688912,0.002672895906345122,0.0025477128872078082,0.014176133182968023,0.011124864172779837,0.0033042783369327693
0.164,0.003342529135614716,0.00267033219952956,0.0025358370963004364,0.014744035779531386,0.011099257967031541,0.003304798756322876
0.165,0.0033448076736974763,0.002667681229270138,0.0025245495917259574,0.015320041663836366,0.011076268498240185,0.003305922334491181
0.166,0.0033458812095642347,0.002664937828832183,0.0025138416063977013,0.015903819187616085,0.011055955502886999,0.003307638993192461
0.167,0.003345707772724157,0.0026620970845847927,0.0025037040844523672,0.016495023739393322,0.011038379205120696,0.0033099380766051264
0.168,0.00334424640881334,0.0026591543640582787,0.002494127702707963,0.01709329797814512,0.011023600253126556,0.0033128083595042293
0.169,0.0033414572791886765,0.0026561053439267293,0.002485102891821913,0.017698272087382234,0.011011679653170642,0.0033162380559228917
0.17,0.003337301761212346,0.0026529460378681585,0.002476619857148011,0.01830956404950843,0.011002678701605918,0.0033202148283425193
0.171,0.003331742549080452,0.0026496728242511847,0.0024686685993017456,0.018926779940279435,0.010996658915105715,0.0033247257974456427
0.172,0.003324743755043195,0.0026462824735967766,0.0024612389344525754,0.019549514243140248,0.010993681959378313,0.0033297575524594974
0.173,0.0033162710108611457,0.00264277217576549,0.0024543205143660726,0.02017735018318297,0.010993809576613668,0.0033352961621134964
0.174,0.0033062915693422156,0.002639139566822727,0.0024479028462183975,0.020809860080436837,0.010997103511911821,0.0033413271862295564
0.175,0.0032947744058043193,0.00263538275553486,0.0024419753122019955,0.021446605722178647,0.01100362543893543,0.0033478356879609304
0.176,0.0032816903193074887,0.002631500349447426,0.0024365271889366194,0.022087138753933328,0.011013436885017484,0.0033548062466920436
0.177,0.003267012033496689,0.002627491480494233,0.002431547666695176,0.02273100108881628,0.011026599155943175,0.0033622229716075785
0.178,0.00325071429689526,0.002623355830083955,0.002427025868450096,0.023377725334854205,0.011043173260611609,0.0033700695159332265
0.179,0.0032327739824911223,0.0026190936536088488,0.0024229508687432584,0.02402683523991888,0.011063219835764034,0.0033783290918444208
0.18,0.003213170186463742,0.0026147058043188517,0.002419311712380826,0.024677846153917583,0.011086799070937443,0.0033869844860346483
0.181,0.0031918843259067984,0.002610193756504359,0.0024160974329530964,0.02533026550788684,0.01111397063377001,0.003396018075931746
0.182,0.003168900235406366,0.0026055596279323688,0.002413297071177995,0.025983593309617595,0.011144793595755566,0.003405411846547561
0.183,0.0031442042623357576,0.0026008062014821138,0.0024108996930644853,0.02663732265540145,0.011179326358523084,0.0034151474079431652
0.184,0.0031177853607270846,0.002595936945925956,0.0024088944078887553,0.027290940257439195,0.011217626580702791,0.003425206013289521
0.185,0.003089635183578726,0.0025909560357982287,0.002407270385971855,0.02794392698640388,0.01125975110542683,0.0034355685775028224
0.186,0.003059748173459139,0.002585868370289503,0.002406016876243958,0.028595758428605525,0.011305755888492914,0.003446215696435066
0.187,0.0030281216512704975,0.0025806795910981502,0.0024051232235793424,0.029245905457163747,0.011355695927193368,0.0034571276666051343
0.188,0.0029947559030392844,0.002575396099166825,0.0024045788858880254,0.02989383481655533,0.011409625189783893,0.0034682845054656913
0.189,0.0029596542646045092,0.0025700250702297626,0.00240437345095357,0.03053900971986155,0.01146759654554159,0.003479665972216092
0.19,0.0029228232040776937,0.002564574469097966,0.0024044966530106424,0.031180890457990426,0.011529661695343004,0.003491251589187365
0.191,0.0028842724019518874,0.00255905306261297,0.002404938389059544,0.03181893502009162,0.011595871102681093,0.0035030206638369007
0.192,0.0028440148287389856,0.0025534704312056,0.0024056887349173106,0.0324525997243211,0.011666273925036264,0.0035149523113946436
0.193,0.00280206682001545,0.0025478369790048272,0.0024067379610046955,0.03308133985805289,0.01174091794552064,0.003527025478199163
0.194,0.00275844814875638,0.002542163942454188,0.0024080765478653224,0.033704610326577074,0.011819849504723461,0.0035392189657531005
0.195,0.0027131820948371895,0.0025364633974077878,0.002409695201409035,0.03432186630927063,0.011903113432695234,0.0035515114555158592
0.196,0.002666295511581635,0.0025307482646919443,0.002411584867868378,0.034932563922191934,0.011990752981017545,0.003563881534439683
0.197,0.0026178188892351044,0.00252503231413032,0.002413736748456722,0.035536160886032335,0.012082809754914705,0.0035763077212455233
0.198,0.0025677864152417905,0.002519330167039136,0.0024161423137184835,0.0361321171983365,0.012179323645371913,0.0035887684934286204
0.199,0.0025162360312021713,0.0025136572972038365,0.0024187933175643535,0.03671989580885351,0.012280332761235378,0.0036012423149806363
0.2,0.0024632094863828707,0.002508030030348773,0.0024216818109859127,0.03729896329679951,0.01238587336129107,0.0036137076648137673
0.201,0.002408752387646207,0.0025024655421079216,0.002424800155444519,0.03786879054872836,0.012495979786360311,0.0036261430658703726
0.202,0.0023529142456634815,0.002496981854498763,0.0024281410359302804,0.038428853435658765,0.012610684391506472,0.0036385271148983824
0.203,0.002295748517275236,0.00249159783089479,0.0024316974736885667,0.0389786334881233,0.012730017478495542,0.0036508385128690983
0.204,0.0022373126438627994,0.0024863331694857014,0.0024354628386128387,0.039517618567876486,0.012854007228676243,0.0036630560960106847
0.205,0.002177668085596591,0.0024812083952095894,0.0024394308613024766,0.04004530353509345,0.012982679636442226,0.003675158867426794
0.206,0.0021168803514263167,0.0024762448501399648,0.0024435956447829105,0.0405611909099832,0.013116058443418063,0.0036871260292645398
0.207,0.0020550190246769262,0.0024714646823138352,0.002447951675884077,0.04106479152783097,0.013254165073480475,0.0036989370153903203
0.208,0.0019921577841134352,0.002466890832995849,0.00245249383627315,0.04155562518656336,0.01339701856869336,0.0037105715245274603
0.209,0.0019283744203379867,0.0024625470223865343,0.0024572174131382092,0.042033221285975676,0.013544635526208553,0.00372200955380686
0.21,0.0018637508473828299,0.0024584577337963026,0.0024621181095201314,0.042497119457772396,0.01369703003616792,0.003733231432679785
0.211,0.0017983731093623408,0.0024546481963169642,0.0024671920542911805,0.04294687018558905,0.01385421362063318,0.003744217857139036
0.212,0.0017323313820456728,0.0024511443660271194,0.0024724358117819006,0.0433820354142265,0.014016195173560857,0.003754949924190296
0.213,0.00166571996920972,0.002447972905768132,0.0024778463910623506,0.04380218914742487,0.014182980901826514,0.003765409166509785
0.214,0.0015986372936306016,0.0024451611635256023,0.002483421254886516,0.044206918033581837,0.014354574267282724,0.0037755775872188664
0.215,0.0015311858825719756,0.0024427371494489957,0.0024891583283076467,0.04459582193883687,0.014530975929807486,0.0037854376947024015
0.216,0.0014634723476317194,0.002440729511540132,0.0024950560069673857,0.044968514506900224,0.01471218369126448,0.0037949725373963715
0.217,0.0013956073588153053,0.0024391675100397534,0.0025011131650544303,0.045324623704935084,0.014898192440258059,0.003804165738471467
0.218,0.0013277056127121687,0.0024380809905401478,0.0025073291629206535,0.04566379235473463,0.015088994097529219,0.003813001530343194
0.219,0.0012598857946570668,0.0024375003558503626,0.0025137038543358277,0.04598567864838709,0.015284577561807311,0.0038214647889445244
0.22,0.0011922705347607795,0.0024374565366387674,0.0025202375933581654,0.04628995664758766,0.015484928655906676,0.003829541067701042
0.221,0.0011249863576959626,0.002437980960876375,0.0025269312407973244,0.046576316765715234,0.01569003007283467,0.0038372166311489648
0.222,0.0010581636261281298,0.0024391055221047054,0.002533786170247631,0.04684446623172619,0.015899861321656543,0.0038444784881358795
0.223,0.0009919364776898847,0.002440862546553833,0.00254080427366947,0.04709412953484133,0.016114398672852047,0.003851314424547454
0.224,0.0009264427554063675,0.0024432847591373636,0.002547987966495123,0.04732504884896582,0.016333615102915318,0.0038577130355138974
0.225,0.0008618239314880458,0.0024464052483494543,0.0025553401922327494,0.04753698443582498,0.016557480238006586,0.003863663757067324
0.226,0.000798225024412143,0.0024502574300850097,0.002562864426539379,0.04772971502590804,0.016785960296562635,0.0038691568972414993
0.227,0.0007357945092176645,0.002454875010399347,0.0025705646807303783,0.0479030381764438,0.017019018030900782,0.003874183666622269
0.228,0.0006746842209443332,0.002460291947218542,0.0025784455046889867,0.04805677060576402,0.017256612667985536,0.0038787362083656293
0.229,0.0006150492511552603,0.0024665424110062915,0.002586511989136385,0.04819074850354352,0.017498699849644684,0.00388280762770163
0.23,0.0005570478374964152,0.002473660744387858,0.00259476976722113,0.04830482781652787,0.017745231572607417,0.0038863920209396144
0.231,0.0005008412462606545,0.0024816814207277845,0.0026032250153857827,0.04839888450943599,0.017996156128782557,0.0038894845039862598
0.232,0.00044659364793945324,0.0024906390016569556,0.0026118844534670743,0.048472814800736314,0.018251418046198627,0.003892081240383055
0.233,0.0003944719857631108,0.002500568093546382,0.0026207553439838286,0.04852653537295233,0.0185109580310002,0.003894179468864471
0.234,0.0003446458372507695,0.0025115033029285963,0.002629845490564541,0.048559983557078704,0.018774712910855425,0.0038957775304327967
0.235,0.00029728726881257195,0.00252347919087272,0.0026391632354652124,0.04857311749060074,0.019042615580097254,0.0038968748949409896
0.236,0.0002525706834637855,0.0025365302263273934,0.00264871745612993,0.04856591624852763,0.019314594946906585,0.003897472187172188
0.237,0.00021067266172288375,0.0025506907384566595,0.002658517560753364,0.04853837994678118,0.019590575882849594,0.00389757121240543
0.238,0.00017177179577345397,0.0025659948680040686,0.0026685734828137755,0.04849052981722111,0.019870479175095532,0.0038971749814616565
0.239,0.0001360485169754514,0.002582476517725675,0.0026788956745526457,0.04842240825352994,0.020154221481656506,0.0038962877352287087
0.24,0.00010368491681640123,0.0026001693019328093,0.0026894950993799657,0.048334078827133656,0.020441715290003222,0.0038949149686646973
0.241,7.48645613987841e-05,0.002619106495184159,0.002700383223183414,0.048225626272309655,0.02073286887942552,0.0038930634542746973
0.242,4.977229956635888e-05,0.0026393209801677158,0.0027115720045166694,0.048097156439629446,0.02102758628753029,0.0038907412650481753
0.243,2.859406477913395e-05,0.0026608451948171314,0.0027230738836378347,0.047948796216889654,0.02132576728129683,0.003887957796836375
0.244,1.1516670853905633e-05,0.002683711078711938,0.002734901770364683,0.04778069341668959,0.02162730733312632,0.0038847237901418045
0.245,-1.2723983047562063e-06,0.0027079500188165223,0.0027470690307113783,0.04759301662980878,0.02193209760232242,0.0038810513512871703
0.246,-9.58520484888727e-06,0.0027335927946205854,0.0027595894722724033,0.047385955043536473,0.022240024922434515,0.0038769539729285414
0.247,-1.3233578861653991e-05,0.002760669522754818,0.0027724773283219666,0.0471597182241317,0.022550971794889973,0.0038724465538754016
0.248,-1.2029345803884118e-05,0.0027892096011670727,0.0027857472405981958,0.046914535862664974,0.022864816389325613,0.0038675454181764466
0.249,-5.7845593600445205e-06,0.002819241652953777,0.0027994142407403552,0.04665065748363169,0.0231814325509898,0.003862268333423986
0.25,5.688260503848056e-06,0.0028507934699486806,0.0028134937303468536,0.04636835211596004,0.023500689815528428,0.003856634528222907
0.251,2.2575884472415572e-05,0.002883891956178375,0.0028280014596255743,0.04606790792635493,0.023822453431407077,0.003850664708763728
0.252,4.506412601860384e-05,0.00291856307130349,0.0028429535046170596,0.04574963181527324,0.024146584390172535,0.0038443810744334442
0.253,7.333758897419593e-05,0.0029548317741763344,0.002858366242983515,0.04541384897616531,0.024472939464722315,0.0038378073323917226
0.254,0.00010757941077145123,0.0029927219666570693,0.002874256328371348,0.04506090241893027,0.024801371255718126,0.0038309687110329553
0.255,0.00014797100160504866,0.0030322564378367466,0.0028906406633718534,0.04469115245880834,0.025131728246235253,0.0038238919722469685
0.256,0.00019469177977481014,0.003073456808814877,0.0029075363711215346,0.04430497617214525,0.02546385486468082,0.003816605422383013
0.257,0.00024791890348157327,0.0031163434781737638,0.002924960765595211,0.043902766820605,0.025797591555944833,0.0038091389218131233
0.258,0.0003078269993621047,0.003160935568285609,0.002942931320648224,0.043484933245512204,0.02613277486067022,0.0038015238929826134
0.259,0.0003745878880662523,0.0032072508725844683,0.002961465637861241,0.043051899234118486,0.02646923750244094,0.003793793326828869
0.26,0.00044837030720169195,0.003255305803934401,0.002980581413237942,0.0426041028597175,0.02680680848259409,0.0037859817874458784
0.261,0.0005293396319963197,0.0033051153442261354,0.0030002964028057566,0.04214199579766429,0.02714531318226943,0.0037781254148708202
0.262,0.0006176575940511028,0.0033566929953344547,0.0030206283871721325,0.04166604261948739,0.02748457347122335,0.003770261925869243
0.263,0.0007134819985740339,0.003410050731565332,0.0030415951350909053,0.04117672006741618,0.02782440782285826,0.003762430612596017
0.264,0.0008169664404986877,0.0034651989537155324,0.0030632143660931335,0.040674516311750814,0.02816463143485797,0.003754672339009694
0.265,0.0009282600199002869,0.0035221464448586836,0.003085503712233428,0.04015993019354047,0.028505056354790767,0.003747029534916693
0.266,0.0010475070571295641,0.003580900327961859,0.0031084806789967515,0.03963347045500797,0.02884549161006217,0.003739546187517362
0.267,0.0011748468080909201,0.0036414660254266897,0.003132162605403057,0.03909565496009443,0.0291857433416716,0.0037322678303194083
0.268,0.0013104131800972362,0.0037038472206401274,0.0031565666233395327,0.03854700990741362,0.029525614941324215,0.003725241529278351
0.269,0.0014543344487404767,0.003768045821612781,0.0031817096161447173,0.037988069037804134,0.029864907191544745,0.003718515866021307
0.27,0.0016067329762264066,0.003834061926776776,0.0032076081764682296,0.037419372838549354,0.030203418408543983,0.003712140918009963
0.271,0.0017677249316337116,0.0039018937930091605,0.0032342785634370597,0.036841467746210055,0.030540944587725185,0.003706168235502685
0.272,0.001937420013571418,0.003971537805940091,0.0032617366591744393,0.036254905349888907,0.030877279551877326,0.0037006508151875527
0.273,0.002115921175722513,0.00404298845259759,0.0032899979247360414,0.035660241596621955,0.031212215102238046,0.003695643070378582
0.274,0.0023033243557752403,0.004116238296433084,0.003319077355544331,0.035058036000469445,0.0315455411726935,0.0036912007976939616
0.275,0.00249971820825536,0.004191277954764917,0.003348989436411675,0.034448850856761075,0.03187704598742483,0.0036873811401636593
0.276,0.002705183841780819,0.004268096078671474,0.003379748096248008,0.033833250462843585,0.03220651622232927,0.0036842425467396734
0.277,0.0029197945612639614,0.004346679335363649,0.0034113666625543004,0.03321180034658595,0.032533737170537355,0.0036818447282004206
0.278,0.003143615615587589,0.004427012393069469,0.0034438578158121898,0.03258506650381869,0.03285849291231078,0.00368024860944962
0.279,0.0033767039512832718,0.004509077908469888,0.0034772335438926234,0.03195361464581488,0.033180566489546266,0.0036795162782141755
0.28,0.003619107972745032,0.004592856516728703,0.00351150509661907,0.03131800945785745,0.03349974008504565,0.0036797109301523645
0.281,0.0038708673095164676,0.004678326824156878,0.003546682940630353,0.030678813869883068,0.03381579520666017,0.0036808968103962643
0.282,0.004132012591190737,0.00476546540354217,0.0035827767146934743,0.03003658834014466,0.034128512876385006,0.0036831391515674016
0.283,0.004402565230459282,0.00485424679216149,0.00361979518561936,0.029391890152791637,0.03443767382445814,0.003686504108315863
0.284,0.004682537214838424,0.0049446434924788965,0.003657746204935479,0.028745272730228772,0.03474305868849445,0.00369105868843803
0.285,0.004971930907594728,0.0050366259755188535,0.0036966366664680983,0.028097284961080667,0.0350444482176689,0.0036968706806300056
0.286,0.005270738858380628,0.005130162686894893,0.0037364724649824464,0.02744847054455187,0.035341623481969654,0.0037040085789381456
0.287,0.005578943624080711,0.0052252200554707,0.0037772584560209154,0.026799367351926513,0.03563436608657314,0.0037125415039779928
0.288,0.005896517600356385,0.005321762504633868,0.0038189984170686766,0.0261505068059048,0.03592245839143385,0.003722539121007694
0.289,0.006223422864363195,0.005419752466168029,0.003861695010164463,0.02550241327844469,0.036205683736214675,0.0037340715549602733
0.29,0.006559611029101715,0.00551915039671157,0.003905349746062978,0.024855603507771693,0.0364838266706962,0.0037472093025595564
0.291,0.006905023109849769,0.005619914796788742,0.003949962950044682,0.024210586035221596,0.03675667319078805,0.0037620231416647856
0.292,0.007259589403109674,0.005722002232393077,0.003995533729458093,0.023567860662565724,0.037024010980223995,0.0037785840380049666
0.293,0.00762322937848846,0.005825367359095826,0.004042059943069142,0.022927917930430433,0.03728562965796417,0.003796963049472725
0.294,0.007995851583912592,0.005929962948645715,0.004089538172282189,0.022291238618370377,0.03754132103125737,0.003817231228150241
0.295,0.008377353564563147,0.006035739918022358,0.004137963694288847,0.021658293267098,0.03779087935423448,0.0038394595202420664
0.296,0.008767621795903357,0.006142647360903453,0.0041873304571944025,0.021029541723311243,0.03803410159181318,0.0038637186640964874
0.297,0.009166531631157838,0.0062506325815050385,0.0042376310571672175,0.0204054327074967,0.038270787688601114,0.003890079086508707
0.298,0.009573947263590064,0.006359641130755646,0.004288856717653307,0.019786403405017892,0.03850074084239353,0.003918610797510507
0.299,0.009989721703909809,0.006469616844771246,0.0043409972706950515,0.019172879080733507,0.03872376778177143,0.003949383283856386
0.3,0.010413696773123825,0.006580501885605907,0.004394041140389049,0.01856527271733397,0.038939679047213904,0.0039824654014136845
0.301,0.010845703111122438,0.006692236784257377,0.004447975328514344,0.017963984677536363,0.03914828927503988,0.004017925266656231
0.302,0.011285560201274471,0.00680476048590422,0.004502785402359912,0.017369402390232682,0.039349417483388285,0.004055830147450949
0.303,0.01173307641128316,0.0069180103973446976,0.004558455484778776,0.01678190006063998,0.03954288735933097,0.0040962463533167305
0.304,0.012188049050533487,0.007031922436602223,0.0046149682464942604,0.01620183840445486,0.03972852754609197,0.004139239125326005
0.305,0.012650264444134047,0.007146431084658654,0.004672304900681379,0.015629564405973552,0.03990617192922448,0.004184872525812856
0.306,0.01311949802382473,0.007261469439271067,0.004730445199843477,0.015065411100102384,0.04007565992048108,0.004233209328048671
0.307,0.013595514435888039,0.007376969270817291,0.004789367435000994,0.014509697378148497,0.04023683673801726,0.004284310906048528
0.308,0.014078067666168873,0.007492861080103438,0.004849048437204565,0.013962727817247472,0.04038955368151257,0.004338237124678993
0.309,0.014566901182275388,0.0076090741580580705,0.004909463581378473,0.013424792533257417,0.04053366840079444,0.004395046230247068
0.31,0.015061748093001046,0.007725536647234542,0.004970586792494168,0.012896167056929144,0.04066904515659838,0.004454794741755187
0.311,0.01556233132497615,0.007842175605043463,0.005032390554069166,0.012377112233141392,0.04079555507216193,0.004517537343006099
0.312,0.0160683638165272,0.00795891706863976,0.005094845918984472,0.011867874142960996,0.0409130763744036,0.004583326775737816
0.313,0.016579548728693615,0.008075686121394574,0.005157922522611517,0.011368684048250944,0.041021494623480044,0.0046522137339665955
0.314,0.017095579673320854,0.008192406960892185,0.005221588598236176,0.01087975835851038,0.041120702929562984,0.004724246759714606
0.315,0.017616140958115634,0.008309002968403584,0.005285810994764324,0.010401298619593135,0.04121060215574468,0.00479947214029553
0.316,0.018140907848514378,0.008425396779797534,0.005350555196692853,0.009933491523915698,0.041291101106072856,0.0048779338073246525
0.317,0.018669546846179302,0.008541510357854092,0.00541578534633109,0.009476508941731646,0.04136211669782431,0.004959673237612426
0.318,0.019201715983895255,0.00865726506594254,0.005481464268256299,0.009030507973017198,0.04142357411723753,0.005044729356093682
0.319,0.019737065136594983,0.008772581743014447,0.005547553495980591,0.0085956310194811,0.04147540695802819,0.005133138440937482
0.32,0.020275236348195926,0.008887380779844434,0.005614013300796702,0.008172005876182263,0.041517557342119794,0.005224934030972934
0.321,0.02081586417389322,0.009001582196429471,0.005680802722761565,0.0077597458422117216,0.04154997602216389,0.005320146835553594
0.322,0.021358576037523464,0.009115105720435033,0.005747879603773987,0.007358949849871461,0.04157262246561056,0.005418804646969534
0.323,0.0219029926035897,0.009227870866555283,0.005815200622706241,0.006969702611760844,0.041585464920293136,0.005520932255506827
0.324,0.022448728163514398,0.009339797016634678,0.005882721332553785,0.006592074785162055,0.04158848046166916,0.005626551367255119
0.325,0.022995391035655278,0.00945080350038031,0.005950396199567479,0.0062261231531012045,0.04158165502200206,0.0057356805247769
0.326,0.023542583978577076,0.009560809676479388,0.006018178644328141,0.005871890821452222,0.04156498340189606,0.005848335030770849
0.327,0.024089904617032237,0.009669735013927283,0.006086021084718398,0.005529407431443563,0.04153846926471966,0.005964526874876901
0.328,0.024636945880081532,0.009777499173368962,0.006153874980744248,0.005198689386918257,0.041502125114553555,0.006084264663778503
0.329,0.025183296450782346,0.009884022088257458,0.0062216908811567875,0.004879740095683676,0.04145597225835455,0.006207553554761288
0.33,0.02572854122686937,0.00998922404563821,0.0062894184718199015,0.004572550224271397,0.041400040753029006,0.006334395192891349
0.331,0.026272261791831005,0.010093025766381996,0.006357006625763447,0.004277097965413744,0.041334369338057925,0.0064647876519803435
0.332,0.026814036895748152,0.010195348484711226,0.006424403454859774,0.003993349317533571,0.041259005354226976,0.006598725379507172
0.333,0.0273534429452292,0.01029611402688411,0.006491556363069443,0.0037212583755369183,0.04117400464890966,0.006736199145667186
0.334,0.027890054501754993,0.010395244888908022,0.006558412101217256,0.003460767632193949,0.041079431468241195,0.00687719599672156
0.335,0.028423444787735574,0.010492664313145482,0.006624916823273167,0.003211808289392325,0.040975358336413976,0.007021699212820392
0.336,0.028953186199571265,0.010588296363660104,0.006691016144116766,0.0029743005785478854,0.04086186592224362,0.00716968827047018
0.337,0.029478850827008646,0.010682066000134641,0.006756655198758669,0.002748154089459024,0.04073904289312746,0.007321138809807725
0.338,0.03000001097808899,0.01077389915019061,0.006821778702982813,0.002533268106894414,0.04060698575654955,0.0074760226068299645
0.339,0.0305162397089954,0.01086372277995768,0.006886331015366052,0.00232953195421094,0.040465798689336877,0.007634307550716664
0.34,0.031027111358111592,0.010951464962778221,0.006950256200628433,0.002136825343310752,0.04031559335490169,0.007795957626373544
0.341,0.03153220208361281,0.011037054945973453,0.00701349809426796,0.001955018730261465,0.040156488708734485,0.007960932902318252
0.342,0.03203109040391753,0.011120423215632192,0.007076000368433287,0.0017839736759187692,0.039988610792503,0.008129189524029553
0.343,0.03252335774033401,0.011201501559416736,0.007137706598984908,0.0016235432109047707,0.03981209251728024,0.008300679712879042
0.344,0.033008588961248024,0.01128022312742295,0.007198560333691046,0.0014735722043094847,0.03962707343660296,0.008475351770762427
0.345,0.03348637292722412,0.011356522491179355,0.0072585051615002534,0.0013338977354987647,0.039433699510172664,0.008653150090542494
0.346,0.033956303036421255,0.011430335700908123,0.0073174847828288625,0.001204349468429751,0.0392321228590355,0.008834015172406636
0.347,0.034417977769730296,0.01150160034119136,0.0073754430807982125,0.0010847500278932491,0.03902250151305045,0.009017883646226948
0.348,0.03487100123501665,0.011570255585192469,0.007432324193355128,0.0009749153771183247,0.038804999151412736,0.009204688299990244
0.349,0.03531498370980001,0.011636242247577705,0.007488072586210176,0.0008746551961854205,0.03857978483695596,0.009394358114340667
0.35,0.03574954218163033,0.011699502836267762,0.0075426331265325535,0.000783773260701003,0.03834703274491481,0.009586818303250541
0.351,0.03617430088533069,0.011759981603127374,0.0075959511573462325,0.0007020678201926788,0.03810692188678805,0.009781990360807204
0.352,0.03658889183617697,0.011817624593680194,0.007647972572575365,0.0006293319756931982,0.03785963582990326,0.00997979211407506
0.353,0.03699295535797747,0.011872379695921432,0.007698643892683776,0.0005653540559974205,0.037605362413261983,0.010180137781962646
0.354,0.03738614060491396,0.011924196688293935,0.007747912340843084,0.0005099179920972527,0.03734429346025657,0.010382938039994365
0.355,0.03776810607591771,0.011973027286895168,0.007795725919549276,0.00046280368932098725,0.03707662448890098,0.010588100090858019
0.356,0.03813852012027869,0.012018825191988845,0.007842033487591535,0.0004237873967201443,0.03680255442027965,0.010795527740574209
0.357,0.03849706143312097,0.01206154613389753,0.00788678483726147,0.00039264207325761873,0.03652228528595583,0.0110051214801107
0.358,0.03884341953932959,0.012101147918345734,0.007929930771677252,0.00036913775035804817,0.036236021935092476,0.011216778572239799
0.359,0.039177295264497605,0.012137590471308454,0.007971423182087732,0.0003530418903872589,0.035943971742058385,0.011430393143408088
0.36,0.039498401191473395,0.012170835883404217,0.008011215125017715,0.00034411974063298657,0.035646344315337995,0.011645856280359353
0.361,0.03980646210110485,0.012200848453859617,0.008049260899116164,0.000342134682363661,0.03534335120861839,0.011863056131228402
0.362,0.040101215395780265,0.01222759473406346,0.008085516121571028,0.00034684857454620827,0.035035205634955185,0.012081878010804875
0.363,0.04038241150436916,0.012251043570716552,0.00811993780395288,0.0003580220918086253,0.03472212218490236,0.012302204509644704
0.364,0.04064981426720141,0.01227116614856179,0.008152484427340538,0.00037541505624028585,0.03440431654943283,0.01252391560667685
0.365,0.040903201299816526,0.012287936032651,0.008183116016564917,0.00039878676263416896,0.03408200524839,0.012746888784917807
0.366,0.04114236433435773,0.012301329210079363,0.008211794213387488,0.0004278962967905311,0.033755405365109195,0.01297099914987621
0.367,0.04136710953764258,0.012311324131106232,0.008238482348411975,0.00046250284651900214,0.0334247342877473,0.013196119550215778
0.368,0.041577257805095795,0.012317901749584604,0.008263145511514112,0.0005023660049932315,0.033090209457768485,0.013422120700251585
0.369,0.04177264502991839,0.012321045562631512,0.008285750620562358,0.0005472460661286691,0.03275204812595418,0.013648871303879363
0.37,0.04195312234711926,0.012320741649474148,0.00830626648819174,0.0005969043116725474,0.03241046711623256,0.013876238179575746
0.371,0.04211855635230135,0.012316978709394449,0.008324663886385334,0.0006511032897187471,0.032065682597554365,0.014104086386160885
0.372,0.04226882929528265,0.012309748098670685,0.008340915608615707,0.0007096070843889484,0.03171790986398042,0.014332279349086886
0.373,0.04240383924870691,0.012299043866384463,0.008354996529303231,0.000772181576452174,0.031367363123089416,0.01456067898709383
0.374,0.04252350025179516,0.01228486278893102,0.008366883660359979,0.0008385946946841325,0.031014255292762968,0.01478914583913428
0.375,0.04262774242934773,0.012267204403043923,0.008376556204604736,0.0009086166577932103,0.030658797806357416,0.015017539191492164
0.376,0.04271651208604469,0.012246071037125527,0.008383995605852054,0.0009820202067602093,0.03030120042623613,0.015245717205019363
0.377,0.042789771776022376,0.012221467840661247,0.00838918559549352,0.0010585808274546616,0.029941671065616772,0.015473537042399385
0.378,0.04284750034763169,0.012193402811484016,0.008392112235406474,0.001138076963405013,0.02958041561868154,0.015700854995336265
0.379,0.04288969296321608,0.012161886820638484,0.008392763957048488,0.0012202902186168412,0.02921763779888934,0.015927526611565056
0.38,0.04291636109370023,0.012126933634571822,0.008391131596621233,0.0013050055503541602,0.028853538985407205,0.016153406821589472
0.381,0.04292753248779049,0.0120885599343568,0.008387208426205843,0.0013920114518226727,0.028488318077549982,0.016378350065073877
0.382,0.04292325111568197,0.012046785331643162,0.008380990180779023,0.0014811001247183716,0.028122171357091896,0.01660221041685736
0.383,0.0429035770873335,0.012001632381039904,0.008372475081017712,0.0015720676416281284,0.027755292358286734,0.01682484171261775
0.384,0.042868586545556746,0.011953126588651834,0.008361663851793702,0.0016647140982893386,0.02738787174539514,0.01704609767427609
0.385,0.0428183715342934,0.011901296416523831,0.008348559736250965,0.0017588437557323558,0.027020097197470436,0.017265832035274896
0.386,0.042753039842488065,0.011846173282782438,0.008333168505352673,0.0018542651723423835,0.026652153300115118,0.017483898665879346
0.387,0.042672714823936295,0.01178779155730161,0.008315498462787658,0.0019507913258892025,0.026284221443895077,0.017700151698646995
0.388,0.042577535193485984,0.011726188552753364,0.008295560445139592,0.002048239725587913,0.025916479729080996,0.01791444565419615
0.389,0.042467654800062905,0.01166140451093388,0.00827336781724226,0.0021464325142742735,0.02554910287637157,0.018126635567378084
0.39,0.0423432423771719,0.011593482584281471,0.008248936462664508,0.002245196560802323,0.02518226214325299,0.01833657711392508
0.391,0.042204481271719066,0.011522468812520966,0.00822228476928673,0.0023443635427954847,0.024816125245683482,0.018544126737608625
0.392,0.04205156915212913,0.011448412094377181,0.008193433609951646,0.0024437700199017075,0.024450856284866464,0.01874914177790653
0.393,0.04188471769676578,0.011371364154304129,0.008162406318200517,0.0025432574977175522,0.02408661567897238,0.018951480598149183
0.394,0.04170415226362223,0.011291379504187437,0.008129228659139485,0.002642672482557096,0.02372356009975825,0.01915100271409478
0.395,0.0415101115421766,0.011208515400001158,0.008093928795510739,0.002741866527251031,0.023361842414099488,0.019347568922874366
0.396,0.041302847188232364,0.011122831793430125,0.008056537249063932,0.0028406962681689204,0.023001611630493485,0.01954104143225343
0.397,0.041082623442500237,0.011034391278491491,0.0080170868573378,0.002939023453661802,0.022643012850625997,0.01973128399017677
0.398,0.0408497167336316,0.010943259033197865,0.00797561272597692,0.003036714964124163,0.022286187226116083,0.01991816201458524
0.399,0.040604415266410676,0.010849502756308322,0.007932152176726798,0.003133642823877763,0.021931271920576458,0.020101542723505453
0.4,0.04034701859588387,0.010753192599229008,0.00788674469126994,0.003229684205089037,0.02157840007714067,0.020281295265414046
0.401,0.04007783718834707,0.010654401093161295,0.007839431851082834,0.0033247214239477186,0.0212277007916067,0.020457290849870788
0.402,0.039797191970267806,0.010553203071644713,0.007790257273505465,0.0034186419293532246,0.02087929909132672,0.020629402878401606
0.403,0.039505413866323634,0.010449675588684352,0.007739266544218581,0.0035113382843717966,0.020533315919946154,0.020797507075593528
0.404,0.03920284332776445,0.010343897832672705,0.007686507146320516,0.003602708140738474,0.020189868128076043,0.020961481620339856
0.405,0.038889829852270255,0.010235951036314533,0.007632028386190677,0.003692654206684819,0.01984906846997414,0.02112120727715018
0.406,0.03856673149640727,0.01012591838275437,0.007575881316325529,0.0037810842083783047,0.019511025606302065,0.02127656752742318
0.407,0.0382339143817014,0.010013884908105895,0.007518118655335268,0.0038679108452631407,0.019175844113006102,0.021427448700573365
0.408,0.03789175219525702,0.00989993740059334,0.007458794705292324,0.0039530517395945,0.018843624496332565,0.021573740104898844
0.409,0.037540625685755606,0.009784164296526471,0.007397965266625409,0.004036429380458406,0.018514463213939576,0.021715334158064453
0.41,0.037180922155582725,0.009666655573332078,0.007335687550758806,0.0041179710625690435,0.018188452702016068,0.021852126517045548
0.411,0.03681303494976408,0.009547502639856119,0.0072720200907116315,0.004197608820134898,0.01786568140827451,0.02198401620733295
0.412,0.0364373629423408,0.009426798224139154,0.007207022649897308,0.004275279356084242,0.01754623383065106,0.022110905751147547
0.413,0.036054310020764355,0.009304636258863188,0.00714075612939293,0.004350923966937178,0.017230190561525763,0.02223270129436904
0.414,0.03566428456883197,0.009181111764679306,0.007073282473970593,0.004424488463604985,0.0169176283372631,0.022349312731861488
0.415,0.03526769894861933,0.00905632073165216,0.007004664577190868,0.004495923088388984,0.01660862009287014,0.02246065383088302
0.416,0.034864968981811816,0.008930359999086718,0.006934966185853561,0.004565182428442901,0.016303235021580875,0.022566642352288824
0.417,0.034456513430803144,0.008803327134019975,0.006864251804088316,0.004632225325956866,0.01600153863920298,0.022667200169258595
0.418,0.034042753479946,0.008675320308663288,0.006792586597352212,0.004697014785319623,0.015703592853094594,0.022762253383292824
0.419,0.033624112217417026,0.008546438177079431,0.006720036296584224,0.004759517877517885,0.015409456035654053,0.022851732437225464
0.42,0.033201014118268875,0.008416779751384018,0.006646667102746796,0.004819705642034843,0.015119183102195085,0.0229355722249948
0.421,0.03277388452932699,0.008286444277776866,0.006572545591963532,0.0048775529865086875,0.014832825593050743,0.02301371219790435
0.422,0.03234314915661466,0.008155531112729032,0.006497738621440588,0.004933038584404248,0.014550431759716374,0.023086096467096435
0.423,0.03190923355597033,0.008024139599664819,0.006422313236338943,0.004986144770938837,0.01427204665481563,0.023152673901953382
0.424,0.031472562627483484,0.007892368946479747,0.006346336577745371,0.005036857437492091,0.013997712225654116,0.02321339822413457
0.425,0.031033560114332785,0.007760318104226713,0.006269875791870949,0.0050851659247238635,0.01372746741110663,0.023268228096958755
0.426,0.030592648106569302,0.007628085647287156,0.006192997940587044,0.005131062914626989,0.013461348241561866,0.023317127209857222
0.427,0.030150246550368128,0.007495769655324884,0.00611576991339071,0.0051745443217525436,0.013199387941624188,0.023360064357646922
0.428,0.029706772763289847,0.007363467597299645,0.006038258340876636,0.005215609183858589,0.012941617035247672,0.023397013514389012
0.429,0.0292626409561465,0.007231276217797902,0.005960529509784462,0.0052542595522420054,0.012688063452951991,0.023427953901599685
0.43,0.028818261762127904,0.007099291425919702,0.005882649279691792,0.0052905003820130055,0.012438752640742474,0.02345287005056772
0.431,0.028374041773883096,0.00696760818694156,0.00580468300143377,0.005324339422565218,0.012193707670335199,0.02347175185851187
0.432,0.027930383089255852,0.006836320416956786,0.005726695437345087,0.005355787108484695,0.011952949350283454,0.023484594638291473
0.433,0.02748768286635796,0.006705520880679277,0.005648750683433925,0.0053848564511313896,0.011716496337618966,0.023491399161379604
0.434,0.02704633288865734,0.006575301092584757,0.005570912093606772,0.005411562931116562,0.011484365249654807,0.02349217169383079
0.435,0.026606719140768002,0.006445751221550594,0.00549324220606757,0.00543592439188838,0.01125657077563987,0.02348692402502903
0.436,0.026169221395636662,0.006316959999137738,0.005415802672014783,0.00545796093462519,0.01103312578800495,0.023475673489071723
0.437,0.02573421281380619,0.006189014631636254,0.005338654186755493,0.005477694814622054,0.010814041452994546,0.023458442978701907
0.438,0.025302059555400234,0.006062000715972954,0.005261856423346367,0.005495150339341961,0.0105993273405243,0.023435260951724872
0.439,0.02487312040542948,0.005936002159558497,0.005185467968858007,0.0055103537682897686,0.010388991533128012,0.023406161429844093
0.44,0.024447746412980417,0.005811101104132963,0.005109546263342926,0.005523333214854276,0.01018304073386032,0.023371183989848877
0.441,0.024026280544817008,0.005687377853652997,0.005034147541569514,0.005534118550250814,0.009981480373013652,0.023330373747098985
0.442,0.02360905735390129,0.005564910806250338,0.004959326777566279,0.005542741309682976,0.009784314713501097,0.023283781331282095
0.443,0.023196402663312094,0.005443776390280777,0.004885137632003985,0.0055492346008281165,0.009591546954749458,0.023231462854455473
0.444,0.022788633266006546,0.005324049004472185,0.004811632402428199,0.005553633014738424,0.009403179334934305,0.023173479871408935
0.445,0.022386056640829835,0.005205800962167869,0.004738861976340227,0.0055559725392382185,0.009219213231370156,0.02310989933239437
0.446,0.021988970685137367,0.005089102439647359,0.004666875787110208,0.005556290474888139,0.00903964925884647,0.023040793528260783
0.447,0.021597663464348826,0.004974021428492919,0.004595721772694007,0.005554625353576377,0.008864487365676792,0.022966240028018885
0.448,0.02121241297870602,0.004860623691957675,0.004525446337117772,0.005551016859784867,0.008693726927207095,0.022886321608839327
0.449,0.020833486947458388,0.004748972725279226,0.004456094314691486,0.0055455057545641265,0.008527366836515594,0.022801126178464436
0.45,0.02046114261064964,0.004639129719870119,0.004387708936915384,0.005538133802235179,0.008365405592036258,0.022710746689982426
0.451,0.020095626548625,0.0045311535313046864,0.004320331802050097,0.005528943699822266,0.00820784138185312,0.02261528104887352
0.452,0.019737174519324652,0.00442510065101348,0.004254002847330783,0.005517979009206837,0.008054672164433873,0.02251483201219206
0.453,0.01938601131338174,0.004321025181594822,0.004188760323812868,0.0055052840919817625,0.007905895745587409,0.02240950707970586
0.454,0.01904235062700556,0.004218978815657503,0.004124640773838719,0.005490904046973754,0.007761509851437325,0.02229941837678794
0.455,0.01870639495260107,0.004119010818114194,0.00406167901111061,0.00547488465039064,0.00762151219720809,0.022184682528861216
0.456,0.018378335487051572,0.0040211680118468485,0.00399990810334905,0.005457272298537432,0.007485900551631478,0.02206542052724793
0.457,0.018058352057569164,0.003925494766662588,0.0039393593575106035,0.00543811395303058,0.007354672796800321,0.02194175758637867
0.458,0.01774661306499354,0.003832032991454008,0.003880062307537401,0.005417457088424095,0.00722782698332139,0.021813822992455618
0.459,0.017443275444391948,0.0037408221294737334,0.003822044704611462,0.005395349642145441,0.007105361380647526,0.021681749943804614
0.46,0.017148484642778235,0.0036518991566299275,0.003765332509889512,0.0053718399666238285,0.006987274522503876,0.021545675383262523
0.461,0.01686237461372633,0.0035652985827073842,0.003709949889696202,0.00534697678347882,0.0068735652473638775,0.021405739823034762
0.462,0.016585067828607226,0.0034810524554178394,0.0036559192131532716,0.0053208091396238595,0.006764232733968249,0.02126208716253862
0.463,0.016316675304133478,0.003399190367182599,0.0036032610522173394,0.005293386365129358,0.006659276531905305,0.021114864499823725
0.464,0.016057296645855833,0.0033197394645498655,0.003551994184090169,0.005264758032685791,0.006558696587281033,0.020964221937218554
0.465,0.015807020107225275,0.0032427244601474577,0.0035021355959551203,0.005234973918510481,0.006462493263505205,0.020810312381876576
0.466,0.015565922663811798,0.003168167647068844,0.0034537004919850175,0.005204083964551931,0.006370667357209483,0.020653291341883952
0.467,0.0153340701022564,0.0030960889155869104,0.003406702302560703,0.005172138241860048,0.0062832201093018115,0.02049331671855357
0.468,0.015111517123518074,0.003026505772086458,0.0033611526956345596,0.005139186915004269,0.006200153211154503,0.02033054859548327
0.469,0.01489830745995405,0.002959433360104031,0.003317061590167268,0.005105280207429455,0.006121468805922174,0.020165149024910227
0.47,0.014694474005737417,0.0028948844833634802,0.0032744371715592497,0.005070468367638533,0.006047169484986358,0.01999728181185419
0.471,0.014500038960077158,0.0028328696306979795,0.0032332859089937277,0.0050348016360826815,0.005977258279523798,0.01982711229651589
0.472,0.014315013982668393,0.0027733970027532737,0.0031936125746098326,0.004998330212629407,0.005911738647196329,0.019654807135383826
0.473,0.01413940036076837,0.0027164725403723403,0.003155420264433653,0.004961104224472963,0.005850614453963389,0.01948053408149475
0.474,0.013973189187267034,0.002662099954568624,0.0031187104210103973,0.004923173694355336,0.005793889951022495,0.019304461764282535
0.475,0.013816361549103347,0.0026102807580031177,0.0030834828576964605,0.004884588508981049,0.005741569746885821,0.019126759469442544
0.476,0.0136688887253774,0.0025610142978876255,0.0030497357845803976,0.004845398387532975,0.005693658774602611,0.018947596919244202
0.477,0.013530732394524033,0.0025142977902408254,0.003017465836004138,0.004805652850224127,0.005650162254143576,0.01876714405374349
0.478,0.013401844849937157,0.0024701263554257075,0.002986668099651739,0.004765401186845531,0.005611085649982701,0.018585570813368705
0.479,0.01328216922345696,0.002428493054898253,0.002957336147166095,0.0047246924252878865,0.005576434623944758,0.01840304692336514
0.48,0.01317163971615318,0.0023893889290984246,0.0029294620662464986,0.004683575300024675,0.005546214983422717,0.018219741680579892
0.481,0.01307018183585649,0.0023528030364150412,0.0029030364941724394,0.004642098220552225,0.00552043262509697,0.01803582374304931
0.482,0.012977712640909092,0.0023187224931549193,0.002878048652691702,0.004600309239794032,0.005499093474307516,0.01785146092282771
0.483,0.012894140989628156,0.0022871325144436577,0.002854486384204281,0.004558256022493597,0.005482203420250471,0.017666819982475025
0.484,0.01281936779500329,0.0022580164559815575,0.0028323361891682062,0.004515985813637361,0.005469768247198491,0.01748206643560445
0.485,0.012753286284182116,0.0022313558565750197,0.0028115832646494494,0.004473545406960586,0.005461793561978913,0.017297364351879112
0.486,0.012695782262337831,0.0022071304813629017,0.00279221154393691,0.00443098111359093,0.005458284717974216,0.01711287616683917
0.487,0.012646734380556773,0.002185318365659586,0.002774203737146203,0.004388338730878757,0.005459246735928757,0.016928762496931562
0.488,0.01260601440742178,0.0021658958593415724,0.0027575413727409224,0.0043456635114536655,0.005464684221854661,0.016745181960097076
0.489,0.01257348750399029,0.002148837671710667,0.002742204839903865,0.004303000132535901,0.005474601282333613,0.016562291002243476
0.49,0.012549012501876082,0.002134116916772144,0.002728173431691747,0.004260392665520768,0.005489001437512604,0.016380243729902464
0.491,0.012532442184144489,0.0021217051588688,0.002715425388906668,0.004217884545845369,0.005507887532090029,0.016199191749332483
0.492,0.01252362356872134,0.0021115724586115857,0.0027039379446175075,0.004175518543142841,0.005531261644584716,0.016019284012287246
0.493,0.012522398193994932,0.002103687419046611,0.0026936873692641546,0.004133336731690657,0.005559124995175648,0.015840666668623868
0.494,0.012528602406262829,0.0020980172319998987,0.0026846490162755234,0.004091380461165162,0.005591477852392586,0.015663482925879574
0.495,0.01254206764864832,0.002094527724547353,0.0026767973681286117,0.004049690327721069,0.005628319438926047,0.015487872915903398
0.496,0.012562620751089323,0.0020931834055668667,0.0026701060827725573,0.004008306145419598,0.005669647836811382,0.015313973568586927
0.497,0.012590084220988795,0.002093947512338754,0.0026645480403411394,0.0039672669180319375,0.005715459892231016,0.015141918492695881
0.498,0.012624276534112482,0.0020967820571671197,0.002660095390079838,0.003926610811248667,0.005765751120173272,0.014971837863769067
0.499,0.012665012425323165,0.002101647873998054,0.00265671959741676,0.003886375125334577,0.005820515609184164,0.014803858319031417
0.5,0.012712103178741269,0.0021085046650117433,0.002654391491107695,0.0038465962682819803,0.005879745926448,0.014638102859266085
0.501,0.012765356916915953,0.0021173110471654944,0.0026530813103840738,0.0038073097295288167,0.005943433023433744,0.014474690757598743
0.502,0.01282457888858392,0.0021280245986640836,0.0026527587520300626,0.0037685500543147474,0.006011566142347176,0.01431373747515341
0.503,0.012889571754591864,0.0021406019053339612,0.002653393017312501,0.003730350818747858,0.006084132723631015,0.0141553545835387
0.504,0.012960135871564782,0.0021549986068794733,0.0026549528586849156,0.0036927446056498497,0.0061611183147515704,0.013999649694120271
0.505,0.013036069572914592,0.0021711694430015635,0.002657406626185407,0.0036557629812419223,0.006242506480499264,0.013846726394031457
0.506,0.013117169446798721,0.002189068299360356,0.002660722313449074,0.00361943647272908,0.006328278715013903,0.013696684188863845
0.507,0.013203230610651852,0.0022086482533620155,0.0026648676032588548,0.003583794546839926,0.006418414355728199,0.013549618451957348
0.508,0.013294046981923163,0.0022298616197497416,0.0026698099125620693,0.0035488655893840576,0.006512890499408038,0.013405620380179319
0.509,0.013389411544655108,0.002252659995981872,0.002675516436880844,0.0035146768858976022,0.006611681920457336,0.013264776956054995
0.51,0.013489116611537446,0.0022769943073870954,0.00268195419404205,0.003481254603453825,0.006714760991649542,0.013127170916094022
0.511,0.013592954081064609,0.002302814852094363,0.0026890900671478362,0.0034486237737165622,0.006822097607445582,0.012992880725146976
0.512,0.013700715689422603,0.0023300713457396756,0.002696890846703916,0.0034168082773098634,0.006933659110055105,0.012861980556615428
0.513,0.01381219325673629,0.002358712965952922,0.0027053232718215075,0.00338583082956977,0.0070494102183903656,0.012734540278326654
0.514,0.013927178927314847,0.0023886883966268172,0.0027143540704115047,0.0033557129677355734,0.0071693129600519205,0.01261062544387119
0.515,0.014045465403537717,0.0024199458719677365,0.0027239499982969844,0.0033264750396296444,0.007293326606481405,0.012490297289191984
0.516,0.014166846173027972,0.0024524332203251314,0.0027340778771825615,0.003298136193867578,0.007421407611427712,0.012373612734213849
0.517,0.014291115728768839,0.0024860979077929246,0.0027447046314351656,0.0032707143716337664,0.007553509552899407,0.012260624389316362
0.518,0.014418069781831086,0.0025208870815736726,0.002755797323648119,0.003244226300051116,0.007689583078808656,0.012151380566480758
0.519,0.01454750546638793,0.0025567476130938724,0.002767323188976608,0.003218687487167454,0.007829575856538578,0.01204592529497597
0.52,0.0146792215367004,0.00259362614085532,0.0027792496682457306,0.003194112218575651,0.007973432526681755,0.011944298341490038
0.521,0.014813018555772403,0.0026314691130031984,0.0027915444398403776,0.003170513555679838,0.008121094661204954,0.01184653523466058
0.522,0.014948699075414594,0.0026702228295886815,0.0028041754503889595,0.003147903335615815,0.008272500726298324,0.01175266729400133
0.523,0.015086067807518862,0.0027098334845033663,0.00281711094425316,0.003126292172828964,0.00842758605016726,0.011662721663244857
0.524,0.015224931786411463,0.0027502472070635438,0.002830319491837604,0.003105689462307277,0.008586282796020174,0.011576721348121748
0.525,0.015365100522209121,0.0027914101032218627,0.0028437700167380686,0.0030861033844612044,0.0087485199404961,0.01149468525858799
0.526,0.015506386145159243,0.002833268296381438,0.0028574318217529293,0.0030675409116371526,0.008914223257767152,0.011416628255507447
0.527,0.01564860354102344,0.0028757679677841705,0.002871274613788238,0.0030500078162483957,0.009083315309545205,0.011342561201793326
0.528,0.015791570477659448,0.0029188553964436194,0.00288526852769261,0.003033508680505176,0.0092557154412176,0.011272491018003022
0.529,0.015935107723035552,0.0029624769985946015,0.0028993841490646665,0.0030180469077234298,0.009431339784328517,0.01120642074236313
0.53,0.016079039154944862,0.00300657936663531,0.0029135925360815537,0.0030036247351883385,0.009610101265608658,0.011144349595181744
0.531,0.016223191862680453,0.0030511093075401654,0.002927865240399493,0.0029902432485459786,0.009791909622736327,0.011086273047587622
0.532,0.016367396240914357,0.0030960138807217537,0.002942174327175698,0.0029779023976946825,0.009976671426989903,0.01103218289452229
0.533,0.01651148607601382,0.003141240435319168,0.0029564923942568214,0.0029666010141461644,0.010164290112929363,0.010982067331906027
0.534,0.016655298625025336,0.003186736646890263,0.0029707925905743363,0.0029563368298227023,0.01035466601522847,0.010935911037907257
0.535,0.01679867468755012,0.0032324505534889352,0.0029850486337827057,0.0029471064972502064,0.010547696412770717,0.010893695258266752
0.536,0.016941458670720014,0.0032783305911174053,0.002999234827171737,0.0029389056110998126,0.010743275580116072,0.010855397895655663
0.537,0.01708349864746743,0.003324325628556865,0.0030133260758803703,0.0029317287310250246,0.010941294846435218,0.010820993603069148
0.538,0.01722464640827554,0.003370385001593144,0.0030272979024359805,0.002925569405738266,0.011141642661991793,0.010790453881271334
0.539,0.017364757506599455,0.0034164585466620466,0.003041126461640927,0.0029204201982688254,0.01134420467223273,0.010763747180317026
0.54,0.017503691298158913,0.0034624966339409117,0.0030547885548258347,0.0029162727123416524,0.011548863799524186,0.01074083900518602
0.541,0.017641310974309057,0.0035084501999120346,0.0030682616434860037,0.002913117619812469,0.011755500332548074,0.010721692025575979
0.542,0.01777748358969763,0.003554270779422002,0.0030815238623129104,0.0029109446890900966,0.011963992023353975,0.010706266189905186
0.543,0.017912080084424117,0.003599910537257562,0.0030945540316267587,0.0029097428144726854,0.012174214192044858,0.010694518843574342
0.544,0.018044975300931815,0.0036453222992520245,0.0031073316692089427,0.00290950004632058,0.012386039839063773,0.01068640485152552
0.545,0.0181760479958819,0.003690459582927264,0.0031198370015262317,0.002910203621984462,0.012599339765042667,0.010681876725118193
0.546,0.01830518084727699,0.0037352766276667073,0.0031320509743321913,0.002911839997403041,0.012813982698169916,0.010680884753322245
0.547,0.018432260457127557,0.0037797284244052687,0.0031439552626257197,0.002914394879280337,0.013029835429025083,0.010683377138210244
0.548,0.018557177349989216,0.003823770744813991,0.0031555322799410625,0.002917853257749788,0.013246762952819664,0.010689300134714095
0.549,0.018679825967733075,0.003867360169952467,0.0031667651869379744,0.0029221994394319373,0.013464628618976888,0.010698598194590854
0.55,0.01880010466093266,0.003910454118363352,0.003177637899254947,0.002927417080793221,0.013683294287983054,0.010711214114518355
0.551,0.0189179156772594,0.003953010873590081,0.0031881350945828783,0.0029334892217134753,0.013902620495439947,0.0107270891882158
0.552,0.019033165147282042,0.003994989611107388,0.003198242218911059,0.0029403983191690387,0.014122466623234227,0.010746163362459774
0.553,0.01914576306806503,0.004036350424659524,0.0032079454918919536,0.0029481262809380915,0.014342691077713738,0.010768375396841138
0.554,0.01925562328495066,0.004077054352000804,0.0032172319112674544,0.0029566544992352933,0.014563151474726947,0.010793663027081898
0.555,0.019362663471889065,0.0041170634000278475,0.0032260892562995945,0.0029659638841818556,0.014783704831347041,0.010821963131704098
0.556,0.01946680511065436,0.004156340569285162,0.0032345060901534575,0.002976034897013595,0.015004207764070847,0.01085321190181498
0.557,0.019567973469261896,0.0041948498778181615,0.0032424717611864726,0.002986847582924461,0.015224516693255962,0.01088734501374441
0.558,0.01966609757987886,0.004232556384342498,0.00324997640310363,0.002998381603438671,0.015444488053534764,0.010924297804243095
0.559,0.019761110216490945,0.004269426210695634,0.003257010933942405,0.0030106162682017705,0.015663978509916354,0.010964005447925765
0.56,0.01985294787254414,0.004305426563534609,0.0032635670538560964,0.003023530566079292,0.015882845179253948,0.011006403136625773
0.561,0.019941550738724074,0.004340525755242832,0.0032696372416713055,0.0030371031954503527,0.016100945856716484,0.011051426260319911
0.562,0.020026862680973687,0.004374693224010059,0.003275214750205442,0.003051312593582673,0.016318139246863206,0.011099010589283958
0.563,0.020108831218790223,0.004407899553054175,0.003280293600343911,0.003066136964977666,0.016534285198882198,0.011149092457145746
0.564,0.020187407503785483,0.004440116488958414,0.0032848685738925553,0.0030815543085830183,0.016749244945519274,0.011201608944506149
0.565,0.020262546298439373,0.004471316959100897,0.00328893520523487,0.0030975424437855873,0.016962881345190743,0.011256498062794005
0.566,0.02033420595493449,0.004501475088157441,0.0032924897718309577,0.0031140790351139275,0.01717505912674061,0.011313698938006538
0.567,0.020402348393941245,0.004530566213667473,0.0032955292835948726,0.0031311416155910556,0.017385645136267232,0.011373151993964251
0.568,0.020466939083228455,0.004558566900666187,0.0032980514711819404,0.0031487076086839055,0.017594508585404883,0.011434799134684606
0.569,0.02052794701598499,0.004585454955398012,0.003300054773212626,0.0031667543488023736,0.017801521300401614,0.011498583925458808
0.57,0.02058534468873565,0.004611209438132816,0.0033015383224578366,0.0031852591003146166,0.018006557971286797,0.011564451772202526
0.571,0.020639108078719725,0.004635810675106138,0.003302501931012438,0.003204199075068161,0.018209496400371863,0.01163235009863914
0.572,0.020689216620584674,0.0046592402695989485,0.003302946074487695,0.0032235514484341755,0.018410217749281674,0.011702228520856879
0.573,0.02073565318223219,0.00468148111216181,0.0033028718752583022,0.0032432933739174933,0.018608606783680356,0.011774039018757627
0.574,0.020778404039630625,0.004702517389974497,0.0033022810848050525,0.0032634019963923965,0.01880455211483793,0.011847736103892458
0.575,0.02081745885037338,0.00472233459531697,0.003301176065199478,0.0032838544640331913,0.018997946437179208,0.011923276983165244
0.576,0.020852810625722387,0.004740919533112098,0.0032995597697812727,0.003304627939011474,0.019188686760961818,0.01200062171788444
0.577,0.020884455700838255,0.004758260327485281,0.0032974357230827686,0.003325699607031197,0.019376674639248824,0.012079733377650191
0.578,0.020912393702864525,0.004774346427272218,0.0032948080000572426,0.003347046685770311,0.019561816388369832,0.012160578188570482
0.579,0.02093662751649688,0.004789168610394646,0.003291681204669427,0.003368646432295348,0.019744023301089177,0.012243125675299164
0.58,0.02095716324662308,0.004802718987015158,0.0032880604479082138,0.00339047614951343,0.019923211851714577,0.01232734879637912
0.581,0.020974010177573166,0.004814991001376143,0.0032839513252846393,0.003412513191725458,0.020099303892399632,0.01241322407236419
0.582,0.020987180728495633,0.004825979432225573,0.0032793598938830543,0.0034347349693468103,0.020272226839939147,0.012500731706190996
0.583,0.020996690404396414,0.004835680391734411,0.0032742926490376425,0.0034571189528699287,0.020441913852426007,0.01258985569527376
0.584,0.021002557742444045,0.004844091322815118,0.0032687565007075443,0.003479642676155569,0.020608303995211564,0.012680583934790669
0.585,0.021004804253237697,0.004851210994754777,0.003262758749621174,0.0035022837391523965,0.020771342395668937,0.012772908311613243
0.586,0.021003454356838088,0.0048570394970800426,0.0032563070632557387,0.003525019810154642,0.02093098038629673,0.01286682478830234
0.587,0.020998535313461967,0.004861578231578885,0.003249409451713775,0.003547828627714064,0.02108717563572538,0.012962333476562279
0.588,0.020990077148818415,0.0048648299024173025,0.0032420742435556402,0.00357068800232624,0.021239892267211735,0.013059438699515676
0.589,0.020978112574102734,0.004866798504303824,0.003234310061645388,0.0035935758180126675,0.02138910096423687,0.01315814904214426
0.59,0.020962676900670576,0.004867489308666075,0.0032261257990671656,0.00361647003391951,0.021534779062857085,0.013258477389240934
0.591,0.020943807949422733,0.004866908847813216,0.003217530595169582,0.003639348686050957,0.021676910630491875,0.013360440950234951
0.592,0.02092154595496431,0.004865064897069636,0.003208533811794741,0.0036621898892500635,0.021815486530869274,0.013464061270281692
0.593,0.020895933464657353,0.004861966454880833,0.003199145009745773,0.00368497183953339,0.02195050447489936,0.013569364227051364
0.594,0.02086701523274534,0.004857623720909509,0.0031893739255425117,0.003707672816878744,0.02208196905731511,0.013676380012706928
0.595,0.02083483810979172,0.00485204807215543,0.0031792304485119874,0.003730271188558712,0.022209891778995967,0.013785143100627884
0.596,0.020799450927760886,0.004845252037146769,0.003168724598261518,0.003752745413106585,0.022334291054954276,0.013895692196515406
0.597,0.020760904381173086,0.004837249268267864,0.003157866502588708,0.0037750740449952144,0.022455192208005823,0.014008070173612355
0.598,0.020719250904846692,0.004828054512309981,0.003146666375892455,0.003797235740102722,0.02257262744816177,0.01412232399188152
0.599,0.020674544548773936,0.0048176835793522005,0.0031351344981572055,0.003819209262031889,0.022686635837782177,0.01423850460108341
0.6,0.020626840850673168,0.004806153310091647,0.003123281194585367,0.0038409734893422817,0.022797263242533564,0.014356666827769529
0.601,0.02057619670675142,0.00479348154174348,0.0031111168159497497,0.0038625074237454192,0.022904562268200302,0.014476869246269352
0.602,0.020522670241205895,0.004779687072625678,0.0030986517197316384,0.0038837901993035223,0.023008592183412946,0.014599174033813974
0.603,0.02046632067498099,0.004764789625537905,0.003085896252102753,0.0039048010926624717,0.023109418828379875,0.014723646810012701
0.604,0.0204072081942711,0.004748809810040641,0.003072860730801979,0.003925519534339715,0.023207114509740397,0.014850356460976604
0.605,0.02034539381922585,0.004731769083739861,0.003059555428950437,0.003945925121077342,0.023301757881682022,0.014979374948452986
0.606,0.020280939273285812,0.004713689712681573,0.0030459905598412182,0.003965997629259013,0.023393433813465387,0.0151107771043908
0.607,0.020213906853555574,0.004694594730957748,0.003032176262732627,0.003985717029377942,0.02348223324347825,0.015244640411412042
0.608,0.02014435930260043,0.0046745078996198374,0.0030181225896658555,0.004005063501532653,0.02356825301991047,0.01538104476973415
0.609,0.020072359682026645,0.0046534536649901585,0.0030038394933199213,0.004024017451917534,0.02365159572812261,0.015520072251172207
0.61,0.01999797124817679,0.004631457116458662,0.002989336815909342,0.004042559530265314,0.02373236950478136,0.015661806840935016
0.611,0.01992125733025175,0.004608543943853953,0.0029746242791246296,0.00406067064818833,0.02381068783885474,0.01580633416801205
0.612,0.0198422812111656,0.00458474039447978,0.002959711475112976,0.004078331998355378,0.02388666935959736,0.015953741225028215
0.613,0.019761106011445737,0.004560073229907481,0.0029446078584955313,0.004095525074431222,0.02396043761171267,0.01610411607851086
0.614,0.01967779457649884,0.004534569682610522,0.0029293227394164177,0.004112231691696449,0.024032120817949525,0.016257547570554812
0.615,0.019592409367567964,0.004508257412521002,0.002913865277615292,0.004128434008257258,0.024101851629463718,0.016414125012881607
0.616,0.01950501235670719,0.004481164463583506,0.002898244477509916,0.004144114546749887,0.0241697668643516,0.01657393787427489
0.617,0.019415664926094166,0.004453319220382916,0.0028824691842688544,0.004159256216442732,0.02423600723484868,0.016737075462348042
0.618,0.01932442777198437,0.004424750364930334,0.002866548080847884,0.0041738423356381185,0.024300717063775706,0.01690362660057639
0.619,0.01923136081358544,0.004395486833701352,0.0028504896859571642,0.004187856654273614,0.02436404399088717,0.01707367930151733
0.62,0.019136523107100765,0.004365557775029394,0.00283430235291997,0.004201283376621377,0.02442613866981723,0.01724732043715622
0.621,0.019039972765160944,0.004334992506962819,0.0028179942693786807,0.004214107183986262,0.024487154456326238,0.01742463540735383
0.622,0.0189417668818304,0.00430382047569741,0.0028015734578004077,0.004226313257310767,0.024547247088540818,0.01760570780741737
0.623,0.018841961463345498,0.004272071214694339,0.002785047776732521,0.00423788729960681,0.024606574359874886,0.017790619095847112
0.624,0.01874061136470893,0.0042397743045871645,0.002768424922755976,0.004248815558147798,0.024665295785341546,0.017979448263309442
0.625,0.018637770232230205,0.004206959333970997,0.0027517124330809772,0.004259084846367086,0.02472357226201542,0.018172271503856658
0.626,0.01853349045206267,0.004173655861154866,0.0027349176887258297,0.0042686825654198735,0.024781565724448763,0.018369161889364917
0.627,0.018427823104746496,0.004139893376946566,0.002718047918217764,0.004277596725374992,0.024839438795848923,0.01857018904810972
0.628,0.01832081792572808,0.004105701268528635,0.0027011102017559306,0.004285815966009597,0.024897354435789887,0.01877541884835755
0.629,0.018212523271793617,0.004071108784473619,0.0026841114757820816,0.004293329577182599,0.0249554755851831,0.01898491308783318
0.63,0.018102986093329967,0.004036145000935337,0.0026670585379125777,0.004300127518761141,0.025013964809193785,0.019198729189922416
0.631,0.017992251912309926,0.0040008387890405495,0.002649958052194679,0.004306200440068906,0.025072983938759875,0.019416919907474364
0.632,0.017880364805884893,0.003965218783494488,0.0026328165546588337,0.00431153969881608,0.025132693711344082,0.019639533035058186
0.633,0.017767367395449516,0.003929313352406947,0.0026156404591447897,0.00431613737945979,0.025193253411527596,0.01986661113049953
0.634,0.017653300841018713,0.0038931505683437537,0.0025984360633816454,0.004319986310931998,0.025254820512049726,0.02009819124647706
0.635,0.01753820484073647,0.0038567581806090404,0.0025812095553020852,0.00432308008365964,0.025317550315915538,0.020334304672908872
0.636,0.01742211763533221,0.0038201635887633837,0.0025639670195726745,0.004325413065790045,0.02538159560022898,0.020574976690809755
0.637,0.01730507601736146,0.003783393817380941,0.002546714444327262,0.004326980418524349,0.025447106262462816,0.02082022633825413
0.638,0.01718711534510524,0.003746475492046079,0.00252945772809783,0.004327778110454427,0.025514228969948843,0.021070066189032472
0.639,0.017068269561037797,0.0037094348165876883,0.002512202686943241,0.004327802930794775,0.025583106813439862,0.021324502144537846
0.64,0.01694857121478829,0.003672297551547825,0.0024949550617789197,0.004327052501398202,0.025653878965628,0.02158353323936568
0.641,0.0168280514905151,0.0036350889938808408,0.0024777205259096055,0.004325525287442312,0.025726680345500255,0.021847151461056993
0.642,0.016706740238591554,0.003597833957879271,0.0024605046927642085,0.0043232206066753315,0.025801641289396316,0.022115341584368006
0.643,0.016584666011483017,0.0035605567573224668,0.0024433131238276733,0.004320138637118939,0.025878887229622838,0.022388081020413366
0.644,0.016461856103683736,0.003523281188842818,0.002426151336760164,0.004316280423142538,0.02595853838146995,0.02266533968100624
0.645,0.01633833659557428,0.003486030516502586,0.0024090248136903556,0.004311647879843208,0.026040709439465643,0.02294707985849972
0.646,0.016214132401053804,0.0034488274575725643,0.0023919390096691267,0.004306243795682845,0.026125509283694448,0.02323325612141267
0.647,0.016089267318793225,0.003411694169503138,0.0023748993612730702,0.004300071833346774,0.026213040696994747,0.023523815226092724
0.648,0.015963764086941782,0.0033746522380791793,0.0023579112953521406,0.004293136528799341,0.02630340009382265,0.023818696044624013
0.649,0.015837644441094978,0.0033377226667512636,0.0023409802379204666,0.004285443288526371,0.026396677261523224,0.02411782950912529
0.65,0.015710929175295835,0.003300925867135622,0.002324111623192547,0.004276998384973415,0.02649295511468672,0.024421138572509472
0.651,0.015583638205797123,0.0032642816506745827,0.002307310902767901,0.004267808950207842,0.02659230946319644,0.024728538185693736
0.652,0.015455790637267307,0.003227809221449767,0.002290583554965702,0.0042578829678466485,0.02669480879450249,0.025039935291167787
0.653,0.015327404831084987,0.0031915271701428508,0.002273935094307837,0.004247229263298096,0.026800514070582943,0.02535522883275388
0.654,0.015198498475341661,0.0031554534691421196,0.0022573710811454152,0.004235857492366201,0.02690947853997736,0.025674309781330396
0.655,0.015069088656161765,0.003119605468795357,0.0022408971314205506,0.00422377812826516,0.027021747565192978,0.02599706117624373
0.656,0.014939191929945654,0.0030839998948095438,0.002224518926552238,0.00421100244708686,0.027137358465692627,0.026323358182102533
0.657,0.014808824396138736,0.0030486528467954543,0.0022082422234322298,0.004197542511759687,0.027256340376582262,0.026653068160633665
0.658,0.01467800177012725,0.0030135797979508805,0.002192072864514775,0.004183411154533873,0.027378714123035195,0.02698605075727381
0.659,0.014546739455865203,0.0029787955958704994,0.002176016787983433,0.004168621958030674,0.027504492110427454,0.027322158002162342
0.66,0.01441505261785355,0.0029443144644644777,0.0021600800379780664,0.004153189234899662,0.02763367823011792,0.027661234425181775
0.661,0.01428295625212102,0.002910150006964123,0.002144268774864379,0.004137128006136759,0.027766267780786124,0.02800311718465807
0.662,0.014150465255889286,0.0028763152099927423,0.002128589285526393,0.0041204539781212355,0.02790224740523469,0.02834763620928636
0.663,0.014017594495639815,0.002842822448682131,0.002113047993659436,0.004103183518431051,0.02804159504256231,0.02869461435279963
0.664,0.01388435887333598,0.0028096834928165084,0.002097651470038524,0.004085333630492329,0.02818427989560621,0.029043867560864293
0.665,0.013750773390592,0.002776909513985045,0.002082406442735162,0.004066921927111944,0.02833026241353345,0.029395205049675133
0.666,0.013616853210614002,0.002744511093723813,0.0020673198072538967,0.0040479666029345435,0.02847949428942717,0.029748429495721315
0.667,0.013482613717760477,0.0027124982326301246,0.0020523986365569703,0.004028486405859094,0.028631918472671748,0.03010333723618069
0.668,0.01334807057457609,0.0026808803604352117,0.00203765019094047,0.004008500607446292,0.02878746919589869,0.03045971847935395
0.669,0.013213239776145847,0.0026496663470215983,0.002023081927719173,0.003988028972347906,0.028946072016224296,0.030817357524481056
0.67,0.013078137701607095,0.002618864514368189,0.0020087015106710487,0.003967091726794926,0.02910764387049544,0.03117603299021479
0.671,0.012942781162660975,0.00258848264940021,0.001994516819187018,0.003945709526196219,0.029272093144259055,0.031535518050981794
0.672,0.012807187448950043,0.0025585280177147446,0.0019805359570676763,0.003923903421921665,0.029439319754180612,0.03189558068044434
0.673,0.012671374370202396,0.002529007378147529,0.001966767260906258,0.0039016948273661867,0.029609215243653685,0.032255983901273
0.674,0.012535360295066115,0.0024999269981437642,0.0019532193079965176,0.0038791054834067676,0.02978166289135941,0.032616486040433657
0.675,0.01239916418656317,0.0024712926698941414,0.001939900923705695,0.0038561574233710347,0.029956537832540833,0.03297684098918079
0.676,0.01226280563408558,0.0024431097271950535,0.00192682118825602,0.0038328729376343206,0.03013370719275112,0.03333679846695996
0.677,0.012126304881853739,0.002415383062987776,0.0019139894428620346,0.0038092745379549714,0.0303130302338231,0.03369610428847965
0.678,0.011989682853772388,0.0023881171475259376,0.0019014152951743846,0.0037853849216483684,0.030494358511803092,0.03405450063329886
0.679,0.011852961174653854,0.002361316047115677,0.001889108623984281,0.003761226935692796,0.03067753604660267,0.0344117263173416
0.68,0.011716162187812655,0.0023349834433696757,0.0018770795831480863,0.0037368235408573713,0.030862399503143137,0.03476751706577315
0.681,0.011579308969052864,0.0023091226529145152,0.0018653386046991467,0.003712197775943255,0.031048778383779986,0.03512160578668387
0.682,0.011442425337067397,0.002283736647490141,0.0018538964011234984,0.003687372722232256,0.031236495231781437,0.035473722845070645
0.683,0.01130553586025633,0.0022588280743808115,0.0018427639667859144,0.0036623714682403417,0.03142536584559453,0.03582359633669612
0.684,0.011168665859960672,0.002234399277118115,0.0018319525785007733,0.003637217074876243,0.03161519950357858,0.03617095236151626
0.685,0.011031841410110004,0.0022104523163970066,0.0018214737952464667,0.0036119325411051416,0.03180579919883127,0.03651551529646369
0.686,0.010895089333304648,0.002186988991144932,0.0018113394570224016,0.003586540770213,0.03199696188367914,0.03685700806744805
0.687,0.010758437193390563,0.002164010859683142,0.001801561682845878,0.0035610645367600653,0.032188478723352586,0.037195152420494905
0.688,0.010621913284620471,0.002141519260919018,0.0017921528678842642,0.0035355264543052256,0.03238013535832613,0.03752966919200114
0.689,0.010485546617514146,0.0021195153355083006,0.0017831256797171747,0.0035099489439775855,0.03257171217478936,0.037860278578131096
0.69,0.0103493669015367,0.002098000046925781,0.0017744930537245197,0.003484354203966884,0.032762984582721685,0.038186700403403565
0.691,0.010213404524719458,0.0020769742023817542,0.0017662681875992958,0.0034587641799990135,0.03295372330106878,0.038508654388534624
0.692,0.010077690530364062,0.0020564384735190346,0.0017584645349875076,0.0034332005368565856,0.03314369464955064,0.038825860417630045
0.693,0.009942256590994392,0.002036393416822073,0.00175109579825977,0.003407684630997334,0.033332660846661005,0.03913803880486706
0.694,0.009807134979739233,0.0020168394936673317,0.0017441759204189088,0.0033822374843149676,0.033520380313437015,0.03944491056084005
0.695,0.009672358539331013,0.001997777089944625,0.0017377190761454942,0.003356879759077536,0.033706607982584846,0.039746197658738935
0.696,0.009537960648895472,0.001979206535183736,0.0017317396619796726,0.003331631734068327,0.03389109561255251,0.04004162330049024
0.697,0.00940397518869306,0.001961128121128593,0.0017262522856341263,0.003306513281945382,0.03407359210616258,0.04033091218296038
0.698,0.009270436502958751,0.0019435421197110153,0.001721271754430738,0.0032815438478291216,0.034253843833469834,0.040613790764333524
0.699,0.009137379360969844,0.0019264488003857272,0.0017168130628535598,0.003256742429123108,0.03443159495858269,0.04088998753081601
0.7,0.00900483891644943,0.0019098484467960834,0.001712891379213192,0.0032321275565695916,0.034606587770264444,0.0411592332638345
0.701,0.008872850665390048,0.0018937413727442229,0.0017095220314220709,0.0032077172765376523,0.03477856301621097,0.04142126130785335
0.702,0.008741450402363564,0.00187812793744091,0.0017067204918856068,0.003183529134537149,0.03494726024100154,0.04167580783884933
0.703,0.008610674175376561,0.0018630085600123082,0.0017045023615199159,0.003159580159947296,0.03511241812783982,0.04192261213338466
0.704,0.00848055823934195,0.0018483837332462147,0.0017028833529119777,0.0031358868519458572,0.035273774844305925,0.04216141683814285
0.705,0.008351139008266633,0.0018342540365683974,0.001701879272641121,0.003112465166623943,0.03543106839238804,0.04239196823974282
0.706,0.008222453006289645,0.0018206201482472014,0.0017015060027818286,0.003089330505271209,0.03558403696304659,0.04261401653461113
0.707,0.008094536817728988,0.0018074828568288182,0.0017017794816084682,0.0030664977038150757,0.03573241929551019,0.04282731609865665
0.708,0.007967427036302798,0.001794843071806088,0.0017027156835239736,0.003043981023395056,0.03587595504143407,0.043031625756460454
0.709,0.007841160213689316,0.0017827018335217248,0.0017043305982366692,0.0030217941420510653,0.036014385133971205,0.04322670904968595
0.71,0.007715772807591648,0.0017710603223043435,0.0017066402092119754,0.0029999501475038476,0.036147452161709795,0.04341233450445169
0.711,0.007591301129483483,0.0017599198668344807,0.0017096604714285462,0.0029784615310045593,0.036274900747326914,0.04358827589749482
0.712,0.007467781292226454,0.001749281951738577,0.0017134072884712299,0.002957340182226922,0.036396477930709936,0.043754312521058034
0.713,0.007345249157758622,0.0017391482244110974,0.0017178964889957423,0.0029365973851704173,0.0365119335562123,0.04391022944650513
0.714,0.007223740285049522,0.0017295205010676453,0.0017231438026021932,0.0029162438150410266,0.036621020663629975,0.04405581778667894
0.715,0.007103289878502744,0.0017204007720338474,0.0017291648351569966,0.0028962895360797104,0.036723495882404686,0.04419087495697965
0.716,0.006983932736970013,0.0017117912062748419,0.001735975043605216,0.0028767440003158225,0.0368191198284876,0.04431520493509644
0.717,0.006865703203527259,0.0017036941551684722,0.0017435897103175156,0.0028576160472278695,0.0369076575032454,0.044428618519289635
0.718,0.006748635116154439,0.0016961121555230537,0.0017520239170175742,0.002838913904294271,0.03698887869376138,0.044530933585084274
0.719,0.006632761759453079,0.0016890479318388439,0.0017612925183381793,0.002820645188413118,0.03706255837386828,0.04462197534019042
0.72,0.0065181158175252815,0.0016825043978109654,0.0017714101150586776,0.0028028169081652224,0.03712847710523576,0.044701576577411015
0.721,0.006404729328125602,0.001676484657070267,0.0017823910270829179,0.0027854354668917546,0.037186421437814796,0.04476957792524651
0.722,0.006292633638185402,0.0016709920031580832,0.0017942492662234432,0.002768506666557505,0.037236184308908474,0.044825828095862545
0.723,0.006181859360798759,0.0016660299187315664,0.0018069985088624248,0.002752035712372167,0.03727756544008966,0.044870184130039736
0.724,0.006072436333748543,0.0016616020739973886,0.0018206520685615502,0.0027360272181424393,0.03731037173112548,0.0449025116386499
0.725,0.005964393579640139,0.0016577123243717953,0.0018352228686918642,0.0027204852123255455,0.037334417650009284,0.04492268504010478
0.726,0.005857759267698984,0.0016543647073640365,0.001850723415151555,0.002705413144750332,0.03734952561815726,0.044930587793133483
0.727,0.005752560677279074,0.0016515634386793524,0.001867165769236103,0.0026908138939671167,0.03735552638980067,0.04492611262418803
0.728,0.005648824163127378,0.0016493129075383461,0.0018845615207217954,0.0026766897751834833,0.03735225942457867,0.04490916174874014
0.729,0.005546575122455216,0.0016476176712118843,0.0019029217612205006,0.0026630425487407195,0.03733957325230314,0.04487964708569045
0.73,0.005445837963876721,0.001646482448773383,0.0019222570578606025,0.002649873429084291,0.03731732582884117,0.04483749046406438
0.731,0.005346636078278354,0.0016459121140719104,0.0019425774273456964,0.002637183094182235,0.03728538488206831,0.044782623821150024
0.732,0.005248991811678744,0.0016459116879293503,0.0019638923104391254,0.0026249716953482315,0.03724362824688911,0.044714989391260875
0.733,0.005152926440127704,0.001646486329563307,0.0019862105469192056,0.002613238867430308,0.037191944188384216,0.0446345398843584
0.734,0.005058460146680847,0.0016476413272351663,0.0020095403510472488,0.002601983739328893,0.03713023171221456,0.044541238653820564
0.735,0.004965612000473863,0.0016493820881204643,0.0020338892875875598,0.002591204944807575,0.03705840086148305,0.044435059852687815
0.736,0.004874399937909287,0.0016517141273976995,0.0020592642484149434,0.002580900633556592,0.03697637299930101,0.04431598857776735
0.737,0.004784840745958267,0.0016546430565532542,0.002085671429741592,0.0025710684824637887,0.036884081076316924,0.04418402100103209
0.738,0.004696950047569279,0.0016581745709045163,0.0021131163099932376,0.0025617057070415326,0.036781469882454974,0.04403916448781307
0.739,0.004610742289164628,0.0016623144363499182,0.002141603628365246,0.0025528090729524354,0.0366684962820999,0.04388143770135621
0.74,0.004526230730195033,0.0016670684753623815,0.0021711373640928167,0.002544374907574049,0.03654512943195817,0.04371087069340022
0.741,0.0044434274347138515,0.0016724425522502034,0.0022017207164748984,0.0025363991115448185,0.036411350980827796,0.04352750498052831
0.742,0.004362343264925235,0.001678442557715251,0.0022333560856975837,0.002528877170240501,0.03626715525052328,0.04333139360613861
0.743,0.004282987876655108,0.0016850743927416393,0.0022660450545077732,0.0025218041651405274,0.0361125493972215,0.04312260118794634
0.744,0.004205369716692599,0.001692343951849445,0.0022997883707902354,0.0025151747850555503,0.03594755355250642,0.04290120395095276
0.745,0.004129496021954118,0.0017002571057485479,0.002334585931101041,0.002508983337198944,0.03577220094339337,0.04266728974577862
0.746,0.004055372820430128,0.0017088196834278823,0.002370436765209073,0.002503223758094183,0.03558653799062294,0.042420958052173476
0.747,0.003983004933879585,0.0017180374537151238,0.002407339021696201,0.002497889624315063,0.03539062438456831,0.0421623199674028
0.748,0.003912395982235085,0.0017279161063408926,0.002445289954666066,0.0024929741630567615,0.03518453313821953,0.04189149817911809
0.749,0.0038435483896741484,0.001738461232540234,0.002484285911610987,0.0024884702625352978,0.034968350616869065,0.04160862692226259
0.75,0.0037764633923023285,0.001749678305223214,0.002524322322485502,0.00248437048221385,0.034742176544269275,0.04131385191956505
0.751,0.003711141047385,0.0017615726587460264,0.0025653936900329206,0.0024806670628578728,0.03450612398513728,0.041007330305212815
0.752,0.0036475802440589845,0.001774149468313312,0.002607493581408443,0.0024773519364264703,0.03426031930395806,0.04068923053135471
0.753,0.003585778715453887,0.001787413729041032,0.002650614621140073,0.002474416735813832,0.03400490210009396,0.04035973225715603
0.754,0.0035257330521551006,0.0018013702347078812,0.0026947484854669746,0.002471852804460032,0.03374002511923838,0.04001902622021836
0.755,0.003467438716942461,0.0018160235562226057,0.002739885898093008,0.002469651205853992,0.03346585414124973,0.03966731409028766
0.756,0.0034108900607375493,0.00183137801983472,0.0027860166273898247,0.002467802732953524,0.0331825678443907,0.03930480830528486
0.757,0.0033560803396884666,0.0018474376851161506,0.0028331294850793927,0.0024662979175500525,0.0328903576459995,0.038931731889770234
0.758,0.0033030017333159378,0.0018642063227402765,0.00288121232642131,0.002465127039609277,0.032589427519631134,0.03854831825598056
0.759,0.0032516453636419486,0.001881687392082648,0.0029302520519263243,0.002464280136622329,0.032279993788719465,0.038154810987574395
0.76,0.003202001315223678,0.00189988401866525,0.002980234610614092,0.0024637470130035623,0.031962284896826725,0.03775146360622616
0.761,0.0031540586560204133,0.0019187989714645056,0.0030311450048302645,0.002463517249570843,0.03163654115457402,0.037338539321260175
0.762,0.0031078054590265363,0.001938434640102862,0.0030829672966355116,0.002463580213141912,0.031303014463379804,0.03691631076260707
0.763,0.0030632288246070834,0.001958793011944875,0.0031356846157768676,0.0024639250662758408,0.03096196801615937,0.03648505969745064
0.764,0.003020314903473089,0.001979875649121222,0.0031892791692499063,0.0024645407771825933,0.03061367597515302,0.03604507673097163
0.765,0.00297904892023341,0.0020016836655083955,0.0032437322524588516,0.0024654161298179778,0.030258423127069018,0.03559666099158357
0.766,0.0029394151974608176,0.002024217703698525,0.0032990242619804514,0.002466539734177328,0.029896504515768238,0.03514011980101777
0.767,0.002901397180215841,0.0020474779120018428,0.0033551347099345643,0.002467900036799101,0.029528225052798555,0.03467576832957375
0.768,0.0028649774609826387,0.0020714639215314076,0.003412042239958977,0.002469485331488056,0.029153899106205115,0.0342039292368303
0.769,0.002830137804984486,0.0020961748234248245,0.003469724644779002,0.002471283770266144,0.028773850068165213,0.03372493229813513
0.77,0.002796859175858621,0.002121609146262885,0.003528158885356282,0.002473283374558215,0.02838840990207969,0.03323911401727465
0.771,0.0027651217616786036,0.002147764833751805,0.003587321111597655,0.002475472046620325,0.027997918669789706,0.032746817225877765
0.772,0.0027349050013166687,0.0021746392227427734,0.00364718668460346,0.0024778375812204143,0.02760272403963439,0.03224839067030952
0.773,0.0027061876111402943,0.00220222902166763,0.0037077302004326304,0.002480367677582426,0.02720318077619465,0.03174418858700154
0.774,0.002678947612037373,0.002230530289472562,0.00376892551535706,0.0024830499516034494,0.026799650212797746,0.031234570267279587
0.775,0.002653162356763127,0.002259538415134032,0.0038307457725702963,0.0024858719483487474,0.026392499708114737,0.030719899612764934
0.776,0.002628808557599236,0.0022892480978430924,0.003893163430308168,0.0024888211548227085,0.025982102088372074,0.03020054468237847
0.777,0.0026058623143120803,0.002319653327944505,0.003956150291335252,0.0024918850130062,0.025568835076780795,0.029676877231908927
0.778,0.0025842991423926376,0.00235074736871443,0.004019677533753768,0.0024950509331433867,0.02515308071179832,0.029149272247046363
0.779,0.0025640940015555654,0.0023825227390550153,0.004083715743099483,0.002498306307254211,0.024735224755839558,0.028618107470736603
0.78,0.002545221324470417,0.002414971197177299,0.004148234945697402,0.002501638522842843,0.02431565609608172,0.028083762925679438
0.781,0.0025276550456950057,0.0024480837253370944,0.004213204643252965,0.0025050349767680846,0.023894766139056427,0.027546620432776156
0.782,0.002511368630779749,0.0024818505156836185,0.004278593848650804,0.0025084830892391483,0.0234729482007637,0.027007063126342542
0.783,0.0024963351055118277,0.0025162609572785487,0.004344371122924934,0.0025119703178999556,0.02305059689404791,0.026465474966943972
0.784,0.0024825270852688913,0.002551303624343446,0.004410504613354637,0.0025154841719678732,0.022628107514944307,0.025922240252761755
0.785,0.0024699168044535207,0.0025869662657940595,0.004476962092631835,0.0025190122263985012,0.02220587542965122,0.025377743130441128
0.786,0.0024584761459809593,0.002623235796118824,0.004543710999038862,0.002522542136054472,0.02178429546371998,0.024832367106392212
0.787,0.002448176670794235,0.002660098287654973,0.004610718477569022,0.0025260616498605014,0.021363761294986915,0.024286494559522486
0.788,0.0024389896473844858,0.0026975389643100357,0.004677951421914579,0.002529558624928883,0.020944664851703158,0.023740506256388655
0.789,0.002430886081300462,0.0027355421967709664,0.004745376517239091,0.0025330210406412906,0.02052739571725081,0.023194780869780704
0.79,0.0024238367446370937,0.0027740914992391654,0.004812960283645282,0.0025364370126756746,0.020112340542768413,0.022649694501789913
0.791,0.0024178122054955135,0.0028131695277267207,0.004880669120247229,0.002539794806970099,0.019699882468941395,0.02210562021244608
0.792,0.002412782857405242,0.0028527580799460705,0.004948469349755136,0.0025430828536170402,0.019290400558143114,0.021562927555015945
0.793,0.0024087189486947814,0.002892838096821852,0.005016327263479934,0.002546289760682517,0.01888426923803914,0.021021982119031637
0.794,0.002405590611791587,0.0029333896656514227,0.005084209166662873,0.002549404327946328,0.018481857757693957,0.020483145082073273
0.795,0.0024033678924272367,0.002974392024940768,0.005152081424035372,0.002552415560562778,0.01808352965714717,0.01994677277127437
0.796,0.0024020207787186255,0.003015823570945237,0.005219910505520016,0.002555312682643469,0.017689642251356833,0.019413216235462584
0.797,0.0024015192300910135,0.0030576618659478826,0.005287663031994334,0.0025580851507630534,0.017300546129340143,0.018882820828797758
0.798,0.002401833206003678,0.003099883648309631,0.005355305821051464,0.0025607226673861226,0.01691658466927518,0.01835592580672289
0.799,0.002402932694433686,0.0031424648443237058,0.005422805932702345,0.0025632151942108997,0.016538093570263552,0.01783286393499414
0.8,0.002404787740067971,0.0031853805819023035,0.005490130714970625,0.0025655529654244067,0.01616540040139626,0.01731396111249907
0.801,0.0024073684721491384,0.0032286052061176107,0.005557247849334065,0.0025677265008628076,0.01579882416871571,0.016799536008510384
0.802,0.0024106451319172357,0.00327211229661212,0.005624125395968817,0.002569726619067559,0.015438674900622576,0.016289899714959498
0.803,0.002414588099588988,0.0033158746868851953,0.005690731838761049,0.0025715444502223623,0.015085253252230839,0.01578535541425336
0.804,0.002419167920818001,0.0033598644854552252,0.005757036130065648,0.0025731714489494323,0.014738850129124601,0.015286198063101738
0.805,0.0024243553325848906,0.0034040530988913406,0.005823007735210395,0.0025745994069380686,0.014399746330916,0.014792714092770765
0.806,0.0024301212884761227,0.003448411256706395,0.005888616676759946,0.002575820465374284,0.014068212214947775,0.014305181126130238
0.807,0.00243643698332458,0.003492909038102229,0.005953833578562621,0.0025768271271363707,0.01374450738042884,0.013823867711812852
0.808,0.0024432738772006525,0.0035375159005561906,0.0060186297096028055,0.002577612268716738,0.013428880373237514,0.013349033075752508
0.809,0.002450603718754728,0.0035822007102323983,0.00608297702767368,0.0025781691518248777,0.013121568411575624,0.012880926890317283
0.81,0.002458398567916741,0.00362693177419253,0.006146848222872182,0.002578491434620544,0.012822797132609346,0.012419789061203012
0.811,0.0024666308179572233,0.0036716768743702624,0.006210216760904478,0.0025785731825212865,0.012532780360191965,0.011965849532206986
0.812,0.0024752732169113444,0.0037164033032620397,0.0062730569261792955,0.0025784088785252334,0.012251719893731543,0.011519328107957083
0.813,0.002484298888365479,0.003761077901275232,0.006335343864661151,0.0025779934329896834,0.011979805318241454,0.011080434294628955
0.814,0.002493681351604423,0.0038056670956636437,0.00639705362645774,0.002577322192810303,0.011717213835588738,0.010649367158641568
0.815,0.002503394541114714,0.0038501369409701313,0.006458163208125028,0.002576390949954917,0.01146411011692873,0.010226315203279938
0.816,0.0025134128254354934,0.0038944531608870884,0.006518650594683981,0.0025751959493174673,0.011220646176281024,0.009811456263153438
0.817,0.00252371102534456,0.003938581191437943,0.006578494801346903,0.002573733895867701,0.010986961265162734,0.00940495741635954
0.818,0.0025342644313653103,0.003982486225376454,0.00663767591494493,0.00257200196107845,0.010763181788153144,0.009006974914187126
0.819,0.002545048820579909,0.004026133257696112,0.006696175135032943,0.002569997788616412,0.0105494212392226,0.008617654128162155
0.82,0.0025560404727337383,0.0040694871321406475,0.0067539748146277535,0.0025677194992866736,0.010345780158620919,0.008237129514211803
0.821,0.002567216185614549,0.004112512588609096,0.006811058500512999,0.0025651656952264037,0.010152346110089932,0.007865524593699998
0.822,0.00257855328968672,0.004155174311353422,0.0068674109730224265,0.0025623354633477406,0.009969193678141872,0.007502951951064076
0.823,0.002590029661957223,0.004197436977870619,0.006923018285194402,0.0025592283780327112,0.009796384485126477,0.007149513247756368
0.824,0.0026016237390458726,0.004239265308392071,0.006977867801174829,0.0025558445030838036,0.009633967227789158,0.006805299252167269
0.825,0.002613314529429234,0.004280624115869064,0.00703194823373084,0.002552184392933319,0.009481977732997691,0.006470389885181572
0.826,0.0026250816248273683,0.004321478356344614,0.007085249680721444,0.0025482490931138337,0.009340439032288117,0.006144854280999941
0.827,0.002636905210706744,0.0043617931795905665,0.007137763660355392,0.002544040139991927,0.00920936145485521,0.0058287508628409685
0.828,0.002648766075879987,0.004401533979878608,0.007189483145056078,0.002539559559768418,0.00908874273858961,0.005522127433122923
0.829,0.002660645621190182,0.004440666446746386,0.007240402593753059,0.002534809866750912,0.008978568158741087,0.005225021277706587
0.83,0.0026725258672710543,0.004479156615614945,0.0072905179824308995,0.0025297940609076853,0.00887881067376567,0.004937459283762883
0.831,0.002684389461374571,0.00451697091811062,0.007339826832786503,0.0025245156247148764,0.008789431087893313,0.004659458070812184
0.832,0.002696219683256709,0.004554076231945181,0.007388328238871728,0.0025189785193113533,0.008710378229931625,0.0043910241344667
0.833,0.0027080004501124034,0.004590439930216134,0.007436022891623731,0.002513187179977539,0.008641589147799875,0.004132154002392643
0.834,0.0027197163205522736,0.004626029930005554,0.007482913101205145,0.0025071465109552777,0.008582989318268983,0.0038828344019953883
0.835,0.0027313524976162284,0.004660814740175642,0.00752900281708699,0.0025008618796249953,0.008534492871369842,0.0036430424393194233
0.836,0.0027428948308213987,0.004694763508274695,0.007574297645812145,0.002494339110054702,0.008496002828922858,0.0034127457886469407
0.837,0.0027543298172427325,0.004727846066474595,0.007618804866383259,0.0024875844759344834,0.00846741135663376,0.0031919028922748074
0.838,0.002765644601623944,0.00476003297646359,0.007662533443229481,0.0024806046929115575,0.008448600029192645,0.0029804631699477087
0.839,0.0027768269755162355,0.004791295573221985,0.00770549403671807,0.002473406910345642,0.008439440107804104,0.002778367237423476
0.84,0.0027878653754435873,0.004821606007617141,0.007747699011185299,0.00246599870251184,0.008439792829565725,0.0025855471336440907
0.841,0.002798748880095915,0.00485093728776661,0.007789162440465591,0.0024583880592865853,0.008449509708101904,0.0024019265559828617
0.842,0.0028094672065543526,0.004879263319130419,0.007829900110901991,0.0024505833763592685,0.008468432844852224,0.002227421103035724
0.843,0.002820010705557129,0.004906558943301476,0.007869929521825926,0.002442593445017222,0.008496395250409542,0.002061938524423582
0.844,0.002830370355820454,0.00493279997546445,0.007909269883497584,0.002434427441555381,0.008533221175300774,0.0019053789770736651
0.845,0.002840537757434882,0.00495796324048859,0.007947942112497764,0.002426094916364624,0.0085787264496031,0.0017576352874503444
0.846,0.0028505051243616518,0.004982026607610357,0.007985968824556202,0.002417605782753921,0.008632718830792394,0.0016185932192094034
0.847,0.0028602652760552688,0.005004969023650659,0.008023374324789145,0.002408970305560472,0.00869499835922882,0.0014881317457549022
0.848,0.0028698116282412393,0.005026770544701573,0.00806018459530016,0.0024001990895993683,0.008765357720690368,0.0013661233271844097
0.849,0.0028791381828838715,0.0050474123662102265,0.008096427280076824,0.00239130306800017,0.008843582615362642,0.0012524341911145968
0.85,0.0028882395173872263,0.00506687685138254,0.008132131667097493,0.002382293490472393,0.008929452132681787,0.001146924616883314
0.851,0.0028971107730787916,0.005085147557825861,0.008167328667549205,0.0023731819115355448,0.00902273913141227,0.0010494492226269584
0.852,0.0029057476430287437,0.005102209262348345,0.008202050792048051,0.002363980178743224,0.009123210624324352,0.0009598572547357315
0.853,0.002914146359259268,0.005118047983836078,0.008236332123743228,0.0023547004209258575,0.009230628166817396,0.0008779928791967269
0.854,0.0029223036793995976,0.005132651004136184,0.008270208288174156,0.0023453550364733755,0.009344748248816556,0.0008036954743460926
0.855,0.0029302168728422544,0.005146006886882639,0.008303716419737223,0.0023359566816767217,0.009465322689259445,0.0007367999245648381
0.856,0.0029378837064537398,0.0051581054942096876,0.008336895124609032,0.002326518259144185,0.009592099032493985,0.0006771369144657169
0.857,0.0029453024298900883,0.00516893800130712,0.008369784439972645,0.0023170529063043393,0.009724820945927797,0.0006245332231299465
0.858,0.0029524717605669748,0.005178496908784601,0.00840242578940691,0.0023075739840024328,0.009863228618294969,0.0005788120179626944
0.859,0.0029593908683364575,0.005186776052829658,0.008434861934323565,0.002298095065192922,0.01000705915793179,0.0005397931477461238
0.86,0.0029660593599262477,0.005193770613164834,0.008467136921362394,0.002288629923728993,0.010156046990479386,0.000507293434478747
0.861,0.002972477263200261,0.005199477118829454,0.008499296025671234,0.002279192523250133,0.010309924255459395,0.000481126963599262
0.862,0.002978645011300134,0.005203893451824005,0.008531385690003168,0.002269797006169048,0.01046842120119692,0.0004611053722011767
0.863,0.0029845634267265135,0.005207018848656853,0.008563453459562373,0.002260457682757618,0.010631266577589931,0.000447038134851354
0.864,0.0029902337054163314,0.005208853899826163,0.008595547912528576,0.0022511890203279527,0.010798188026242952,0.0004387328466315911
0.865,0.002995657400868066,0.00520940054725949,0.008627718586193659,0.00224200563249981,0.010968912467495144,0.00043599550302798694
0.866,0.0030008364083615835,0.0052086620797234745,0.008660015898661722,0.002232922268540426,0.011143166483882855,0.00043863077629941355
0.867,0.0030057729493136844,0.005206643126207854,0.008692491066104384,0.0022239538027577633,0.011320676699586318,0.0004464422879656271
0.868,0.0030104695558058523,0.0052033496472833115,0.008725196015623009,0.002215115223923703,0.011501170155415236,0.00045923287706833615
0.869,0.003014929055316955,0.005198788924433834,0.008758183293833283,0.002206421624699647,0.011684374678883983,0.0004768048638744438
0.87,0.0030191545556896376,0.005192969547371898,0.008791505971339573,0.0021978881910330135,0.01187001924891638,0.0004989603087088553
0.871,0.0030231494303536257,0.005185901399356678,0.008825217543299346,0.0021895301914893065,0.012057834354709127,0.0005255012656242546
0.872,0.0030269173038225718,0.005177595640548044,0.008859371826292749,0.0021813629664812276,0.012247552348276274,0.0005562300306368708
0.873,0.003030462037475669,0.00516806468944061,0.008894022851712207,0.0021734019173543805,0.01243890779019376,0.0005909493842791509
0.874,0.003033787715633395,0.005157322202431183,0.008929224755875832,0.0021656624952892316,0.01263163778805819,0.0006294628282396746
0.875,0.0030368986319384136,0.00514538305157833,0.008965031667051952,0.0021581601899812006,0.012825482327163577,0.0006715748158757236
0.876,0.003039799276055339,0.005132263300613358,0.009001497589567597,0.002150910518064236,0.013020184592881973,0.0007170909763962632
0.877,0.0030424943207038855,0.00511798017925964,0.00903867628516725,0.002143929011246904,0.013215491284211534,0.0007658183325258376
0.878,0.0030449886090374127,0.005102552055915135,0.009076621151793496,0.0021372312041331477,0.013411152917938781,0.0008175655114743427
0.879,0.003047287142373245,0.00508599840875356,0.009115385099980708,0.00213083262170151,0.013606924122865637,0.000872142949053217
0.88,0.003049395068273519,0.005068339795302364,0.009155020427085582,0.002124748766415778,0.013802563923585259,0.000929363086794728
0.881,0.0030513176689670653,0.005049597820557901,0.009195578689617465,0.002118995104936486,0.01399783601334686,0.0009890405619471005
0.882,0.003053060350095981,0.005029795103698375,0.009237110573967785,0.0021135870543977685,0.014192509015608886,0.00105099239023331
0.883,0.0030546286297675543,0.005008955243452547,0.009279665765866255,0.002108539968209201,0.014386356733924419,0.0011150381412754844
0.884,0.003056028127893663,0.004987102782178104,0.009323292818910485,0.002103869121338439,0.014579158389831783,0.0011810001066008358
0.885,0.003057264555802851,0.004964263168700619,0.009368039022523736,0.002099589695027946,0.01477069884845732,0.001248703460158573
0.886,0.0030583437061109443,0.004940462719964377,0.009413950269690134,0.0020957167608976588,0.014960768831598333,0.0013179764112894034
0.887,0.00305927144283277,0.004915728581547699,0.009461070924799612,0.0020922652643846464,0.015149165118140224,0.0013886503501008335
0.888,0.0030600536917118164,0.0048900886870943275,0.009509443691916109,0.0020892500074707835,0.015335690731744827,0.0014605599852144807
0.889,0.0030606964307384895,0.004863571716708403,0.009559109483775719,0.0020866856306509074,0.015520155115802318,0.0015335434738663102
0.89,0.003061205680822817,0.004836207054357062,0.009610107291834745,0.00208458659409783,0.01570237429566799,0.0016074425443555734
0.891,0.0030615874965862697,0.004808024744325727,0.009662474057717158,0.002082967157986731,0.015882171028223247,0.0016821026108520452
0.892,0.003061847957240817,0.004779055446779073,0.009716244546444064,0.002081841361949065,0.016059374938813306,0.001757372880583819
0.893,0.003061993157528882,0.004749330392494871,0.009771451221852972,0.002081223003634685,0.016233822645618366,0.00183310645343899
0.894,0.0030620291987014147,0.004718881336854935,0.009828124124626449,0.002081125616370166,0.01640535787151363,0.0019091604140232523
0.895,0.0030619621795114327,0.004687740513190798,0.009886290753348188,0.0020815624459106846,0.016573831543479238,0.001985395916221853
0.896,0.003061798187199281,0.004655940585586791,0.009945975948990722,0.0020825464262910365,0.016739101879636353,0.0020616782603202943
0.897,0.003061543288446011,0.00462351460123973,0.010007201783215638,0.0020840901547877263,0.01690103446399966,0.0021378769627467577
0.898,0.003061203520273862,0.004590495942467203,0.010069987450839209,0.0020862058660090265,0.017059502309038185,0.0022138658185131056
0.899,0.0030607848808786834,0.004556918278451282,0.010134349166790462,0.0020889054051342754,0.01721438590612297,0.0022895229564497397
0.9,0.003060293320388485,0.00452281551680524,0.010200300067871697,0.0020922002003282217,0.017365573263914014,0.00236473088734794
0.901,0.003059734731553658,0.004488221755058134,0.010267850119624609,0.0020961012343611546,0.017512959934703906,0.0024393765451366056
0.902,0.003059114940384686,0.004453171232163913,0.01033700602860228,0.002100619015470265,0.017656449028702025,0.002513351321227431
0.903,0.0030584396967600234,0.004417698280153872,0.010407771160338015,0.002105763547501363,0.017795951216223457,0.002586551092165773
