Voltage.RLicht,Voltage.LLicht
0.00194549560546875,0.0090789794921875
-0.00171661376953125,0.02010345458984375
0.02384185791015625,0.00354766845703125
-0.007476806640625,-0.02468109130859375
-0.0344085693359375,0.0267791748046875
-0.02292633056640625,0.0153350830078125
-0.002288818359375,0.010986328125
-0.00049591064453125,0.00186920166015625
-0.0164031982421875,0.00568389892578125
-0.0008392333984375,-0.00934600830078125
-0.01010894775390625,-0.00133514404296875
-0.027313232421875,0.0016021728515625
-0.0032806396484375,0.00728607177734375
-0.02292633056640625,-0.0006103515625
-0.01003265380859375,-0.00080108642578125
-0.0116729736328125,-0.0023651123046875
0.0133514404296875,-0.01956939697265625
-0.02658843994140625,0.01598358154296875
0.0196075439453125,0.0023651123046875
-0.00049591064453125,0.00255584716796875
0.000762939453125,0.00141143798828125
0.00362396240234375,0.0225067138671875
0.01613616943359375,-0.01506805419921875
-0.000457763671875,0.0089263916015625
0.00354766845703125,-0.02246856689453125
0.00446319580078125,-0.009307861328125
-0.01239776611328125,-0.01697540283203125
-0.00904083251953125,0.00797271728515625
0.0069427490234375,0.00537872314453125
-0.00072479248046875,0.00408172607421875
0.00804901123046875,-0.01739501953125
0.0110626220703125,-0.0067138671875
0.01361846923828125,-0.00030517578125
-0.0014495849609375,-0.00431060791015625
-0.00278472900390625,0.00072479248046875
7.62939453125e-05,-0.00858306884765625
0.00209808349609375,0.0049591064453125
-0.00499725341796875,-0.01941680908203125
0.01117706298828125,0.00171661376953125
0.01888275146484375,0.00141143798828125
-0.00164031982421875,-0.00438690185546875
-0.0261688232421875,0.00255584716796875
-0.0167083740234375,0.0176239013671875
0.002899169921875,0.01209259033203125
0.0043487548828125,0.013427734375
0.01148223876953125,-0.000457763671875
0.00095367431640625,-0.00400543212890625
-0.013275146484375,-0.010223388671875
-0.0022125244140625,-0.0135040283203125
-0.0055694580078125,-0.02796173095703125
-0.00980377197265625,-0.0160980224609375
0.03025054931640625,-0.00331878662109375
-0.0014495849609375,-0.00244140625
-0.00091552734375,-0.003662109375
-0.003509521484375,0.00476837158203125
0.02048492431640625,0.00873565673828125
0.00583648681640625,-0.00640869140625
-0.00049591064453125,0.004425048828125
-0.01567840576171875,-0.0098419189453125
-0.00759124755859375,0.01087188720703125
-0.00247955322265625,0.00244140625
-0.01102447509765625,0.00335693359375
-0.01499176025390625,0.00263214111328125
0.0080108642578125,0.00675201416015625
0.00202178955078125,0.0147247314453125
-0.00461578369140625,0.00545501708984375
-0.0118255615234375,-0.00946044921875
0.0025177001953125,0.01556396484375
0.00057220458984375,0.00133514404296875
-0.0418853759765625,0.0054168701171875
-0.0003814697265625,-0.005340576171875
-0.00202178955078125,0.001373291015625
-0.01552581787109375,-0.03810882568359375
0.06771087646484375,0.0171661376953125
-0.0011444091796875,7.62939453125e-05
0.0078582763671875,0.0048828125
0.0029754638671875,0.0106048583984375
-0.00179290771484375,-0.003814697265625
-0.00171661376953125,-0.0012969970703125
0.00774383544921875,0.00408172607421875
-0.00171661376953125,0.00873565673828125
0.02101898193359375,-0.00030517578125
-0.0096893310546875,0.0054168701171875
0.0035858154296875,-0.0038909912109375
-0.0005340576171875,0.00232696533203125
-0.02559661865234375,0.01934051513671875
0.02971649169921875,-0.00682830810546875
0.0029754638671875,0.00682830810546875
-0.00652313232421875,-0.0122833251953125
-0.0011444091796875,0.004730224609375
0.00148773193359375,-0.01697540283203125
-0.01056671142578125,-0.00354766845703125
-0.02101898193359375,0.002288818359375
0.00598907470703125,-0.005340576171875
0.03269195556640625,-0.0023651123046875
-0.00278472900390625,-0.00835418701171875
-0.0023651123046875,0.01605987548828125
-0.01331329345703125,-0.0133514404296875
-0.00217437744140625,-0.00308990478515625
-0.03574371337890625,-0.00568389892578125
-0.0173187255859375,0.0086212158203125
0.00457763671875,0.0060272216796875
0.011749267578125,0.002288818359375
-0.00301361083984375,-0.0075531005859375
-0.00316619873046875,-0.00087738037109375
-0.0029754638671875,0.00095367431640625
-0.01556396484375,0.0325775146484375
-0.00362396240234375,-0.00301361083984375
-0.0165557861328125,0.00072479248046875
-0.00026702880859375,0.00286102294921875
0.00011444091796875,0.00659942626953125
-0.00980377197265625,-0.0072479248046875
0.0215911865234375,-0.00400543212890625
-0.00091552734375,-0.00576019287109375
-0.0231170654296875,0.01132965087890625
-0.00274658203125,-0.001373291015625
-0.00209808349609375,-0.00209808349609375
0.00278472900390625,0.00469207763671875
0.0135040283203125,0.001068115234375
0.00591278076171875,-0.0045013427734375
0.0113677978515625,0.0048828125
-0.01316070556640625,-0.0069427490234375
-0.00156402587890625,0.0006866455078125
0.00835418701171875,0.009002685546875
0.03086090087890625,-0.0133514404296875
0.002899169921875,0.00457763671875
-0.00225067138671875,-0.00049591064453125
0.00164031982421875,0.00675201416015625
-0.01209259033203125,-0.004730224609375
0.0708770751953125,0.00736236572265625
-0.0046539306640625,3.814697265625e-05
-0.00278472900390625,0.00965118408203125
-0.00209808349609375,-0.006256103515625
0.0183868408203125,0.0505828857421875
-0.0008392333984375,-0.0028228759765625
-0.0087738037109375,-0.00232696533203125
-0.01529693603515625,-0.01407623291015625
0.00217437744140625,-0.0045013427734375
0.0070953369140625,0.00148773193359375
0.01705169677734375,-0.024261474609375
0.03662109375,0.01361846923828125
-0.00125885009765625,0.00499725341796875
-0.02960205078125,-0.0052642822265625
-0.00118255615234375,-0.00949859619140625
0.0078582763671875,-0.018157958984375
0.01071929931640625,0.0067901611328125
0.02361297607421875,0.02079010009765625
0.00026702880859375,-0.01796722412109375
0.007781982421875,0.00675201416015625
0.0147247314453125,0.00156402587890625
-0.008392333984375,0.01148223876953125
-0.0135040283203125,-0.005645751953125
-0.01926422119140625,-0.00095367431640625
0.0054168701171875,-0.0045013427734375
-0.0093841552734375,0.0241851806640625
0.0075531005859375,0.00164031982421875
-0.00762939453125,-0.0043487548828125
0.001068115234375,-0.0098419189453125
0.00453948974609375,0.007476806640625
0.01049041748046875,0.00652313232421875
0.00087738037109375,0.00591278076171875
0.00179290771484375,-0.02651214599609375
-0.0031280517578125,-0.0160980224609375
0.004425048828125,-0.00720977783203125
0.0028228759765625,0.00308990478515625
0.010223388671875,-0.0019073486328125
-0.0060272216796875,0.00606536865234375
-0.003662109375,0.02666473388671875
-0.00507354736328125,-0.00774383544921875
-0.0251007080078125,0.010528564453125
-0.0159454345703125,-0.015411376953125
0.0074005126953125,-0.0008392333984375
0.0116729736328125,0.0022125244140625
-0.00049591064453125,0.0037384033203125
0.025482177734375,-0.008392333984375
-0.00888824462890625,0.0077056884765625
0.00675201416015625,-0.005950927734375
0.01018524169921875,0.009002685546875
-0.00244140625,0.0031280517578125
-0.0019073486328125,0.00858306884765625
0.00030517578125,-0.03154754638671875
0.003509521484375,-0.01514434814453125
0.0084686279296875,-0.00400543212890625
-0.002899169921875,0.0104522705078125
-0.00171661376953125,0.01430511474609375
-0.02056121826171875,0.00202178955078125
-0.0081634521484375,0.01369476318359375
-0.03612518310546875,0.0272369384765625
0.008544921875,0.01293182373046875
-0.00019073486328125,0.00164031982421875
0.02288818359375,0.00148773193359375
-0.00843048095703125,0.01434326171875
-0.0003814697265625,-0.00148773193359375
-0.00732421875,0.0019073486328125
0.0099945068359375,-0.001220703125
-0.0029754638671875,0.00457763671875
7.62939453125e-05,-0.00690460205078125
-0.0092315673828125,0.005340576171875
0.0017547607421875,-0.00492095947265625
0.02132415771484375,0.004119873046875
-0.0006866455078125,-0.00751495361328125
-0.00560760498046875,-0.0005340576171875
-0.0545501708984375,0.00576019287109375
-0.0002288818359375,0.00396728515625
-0.00308990478515625,0.00751495361328125
-0.01445770263671875,0.01132965087890625
-0.01392364501953125,0.0028228759765625
0.012969970703125,0.00064849853515625
0.0057220458984375,0.0054168701171875
0.04016876220703125,-0.00942230224609375
-0.014495849609375,-0.000457763671875
0.01239776611328125,0.006866455078125
-0.02300262451171875,0.0052642822265625
0.00255584716796875,-0.01857757568359375
0.0069427490234375,-0.01346588134765625
0.00751495361328125,-0.02780914306640625
0.0012969970703125,0.030364990234375
0.0014495849609375,-0.01834869384765625
0.01132965087890625,0.00026702880859375
-0.0022125244140625,-0.00064849853515625
0.01003265380859375,0.00492095947265625
0.00324249267578125,-0.00293731689453125
-0.00240325927734375,0.02838134765625
0.01880645751953125,0.00766754150390625
0.0028228759765625,-0.00148773193359375
0.006103515625,0.0025177001953125
0.01708984375,0.0025177001953125
0.0028228759765625,-0.0087738037109375
0.00308990478515625,0.00057220458984375
-0.00606536865234375,0.0141143798828125
0.00102996826171875,0.0061798095703125
-0.0189208984375,-0.0304412841796875
0.0048065185546875,-0.0197601318359375
-0.00774383544921875,-0.00522613525390625
-0.01132965087890625,-0.00362396240234375
-0.0052642822265625,0.00225067138671875
0.06702423095703125,0.0012969970703125
0.0067901611328125,0.02140045166015625
-0.00774383544921875,-0.00865936279296875
-0.0061798095703125,0.003204345703125
-0.00385284423828125,-0.00030517578125
-0.009918212890625,0.0070953369140625
0.013275146484375,-0.0008392333984375
0.01495361328125,-0.0156402587890625
0.00720977783203125,-0.010833740234375
0.0186920166015625,0.003204345703125
0.00125885009765625,-0.00011444091796875
-0.00370025634765625,0.0069427490234375
0.0030517578125,-0.0002288818359375
0.0074005126953125,0.005645751953125
-0.0023651123046875,-0.004425048828125
-0.00156402587890625,-0.0025177001953125
0.01743316650390625,-0.00518798828125
0.0139617919921875,0.00499725341796875
0.003509521484375,0.00164031982421875
0.00400543212890625,-0.0133514404296875
-0.026092529296875,0.009613037109375
-0.04940032958984375,0.00087738037109375
0.0139617919921875,-0.00400543212890625
0.00316619873046875,-0.00713348388671875
-0.00049591064453125,0.01064300537109375
-0.01956939697265625,-0.0020599365234375
0.024261474609375,0.01056671142578125
-0.00385284423828125,-0.00286102294921875
0.0028228759765625,0.00545501708984375
0.044097900390625,-0.00072479248046875
0.013885498046875,0.003814697265625
-0.0213623046875,-0.00499725341796875
-0.0054168701171875,0.0040435791015625
0.01148223876953125,0.00293731689453125
0.00911712646484375,0.0092315673828125
0.00270843505859375,0.009307861328125
-0.00041961669921875,-0.0060272216796875
-0.000457763671875,-0.00316619873046875
0.00591278076171875,0.025634765625
0.00118255615234375,-0.00011444091796875
0.0165557861328125,0.000457763671875
0.01117706298828125,0.016937255859375
0.01644134521484375,0.0308990478515625
-0.02269744873046875,-0.00049591064453125
-0.01216888427734375,0.016632080078125
-0.00125885009765625,0.00720977783203125
0.00789642333984375,0.00164031982421875
0.01430511474609375,0.01682281494140625
-0.02918243408203125,0.0042724609375
0.0030517578125,0.0096893310546875
0.0324249267578125,-0.008544921875
0.0030517578125,0.0125885009765625
0.0016021728515625,0.00858306884765625
-0.00698089599609375,3.814697265625e-05
-0.005645751953125,0.0023651123046875
0.01728057861328125,0.00072479248046875
-0.00156402587890625,0.0020599365234375
-0.00530242919921875,0.00873565673828125
-0.00873565673828125,0.00293731689453125
0.005645751953125,0.00057220458984375
-0.01255035400390625,0.00194549560546875
0.01064300537109375,0.00324249267578125
0.0302886962890625,0.01461029052734375
0.0058746337890625,-0.00247955322265625
0.0093841552734375,-0.00408172607421875
-0.00560760498046875,0.00213623046875
-0.001220703125,0.0022125244140625
-0.00110626220703125,-0.0289154052734375
-0.01941680908203125,-0.00576019287109375
0.00823974609375,0.0002288818359375
0.0043487548828125,-0.00080108642578125
-0.00030517578125,-0.0101470947265625
-0.00385284423828125,0.00579833984375
0.0095367431640625,-0.00125885009765625
-0.02559661865234375,0.019073486328125
-0.0739288330078125,-0.00659942626953125
-0.007781982421875,0.0153350830078125
0.01007080078125,-0.001373291015625
-0.0164031982421875,0.01766204833984375
-0.02086639404296875,0.006561279296875
-0.00644683837890625,-0.00713348388671875
-0.0054931640625,-0.0049591064453125
-0.00537872314453125,-0.0022125244140625
0.009765625,0.0214385986328125
0.0084686279296875,0.008544921875
-0.00194549560546875,-0.01049041748046875
0.00244140625,-0.0045013427734375
-0.001373291015625,-0.0046539306640625
0.00659942626953125,0.00194549560546875
0.040435791015625,-0.02483367919921875
0.00453948974609375,-0.004730224609375
0.00244140625,-0.00652313232421875
0.00896453857421875,0.00583648681640625
0.01983642578125,-0.01438140869140625
0.012664794921875,0.00011444091796875
-0.00019073486328125,0.0029754638671875
0.0069427490234375,-0.00026702880859375
0.0238037109375,0.01094818115234375
-0.00118255615234375,-0.00713348388671875
0.00751495361328125,0.00614166259765625
0.00732421875,-0.00354766845703125
-0.0096893310546875,0.01407623291015625
-0.05153656005859375,0.00640869140625
-0.00553131103515625,0.00217437744140625
-0.0136566162109375,-0.01850128173828125
0.00476837158203125,0.0093841552734375
0.006561279296875,-0.0005340576171875
0.02452850341796875,-0.00148773193359375
-0.0157928466796875,-0.008087158203125
0.04974365234375,0.008087158203125
-0.0139617919921875,0.00324249267578125
0.0046539306640625,0.00202178955078125
-0.00514984130859375,-0.00644683837890625
-0.00091552734375,0.00102996826171875
0.00469207763671875,-0.00804901123046875
-0.0133514404296875,0.03387451171875
0.00164031982421875,0.00125885009765625
0.0213623046875,0.0080108642578125
-0.00331878662109375,0.01499176025390625
-0.01434326171875,0.005645751953125
-0.00347137451171875,0.00244140625
-0.0005340576171875,-0.00034332275390625
-0.0045013427734375,0.0118255615234375
0.0138092041015625,-0.01094818115234375
0.004425048828125,0.004425048828125
0.00911712646484375,-0.01438140869140625
-0.0008392333984375,0.0014495849609375
-0.00423431396484375,0.015716552734375
0.00019073486328125,0.006103515625
0.01613616943359375,0.005950927734375
-0.0075531005859375,0.00255584716796875
-0.0238800048828125,-0.035400390625
0.00202178955078125,0.01567840576171875
0.014190673828125,-0.00255584716796875
0.01644134521484375,7.62939453125e-05
-0.0466156005859375,-0.0235748291015625
-0.01220703125,-0.00614166259765625
-0.00396728515625,0.0
-0.00980377197265625,0.01560211181640625
0.00240325927734375,0.01537322998046875
0.04444122314453125,0.00457763671875
0.000457763671875,0.00659942626953125
0.0014495849609375,-0.0061798095703125
0.0025177001953125,-0.000152587890625
0.0079345703125,0.00461578369140625
0.02666473388671875,0.01972198486328125
-0.01049041748046875,-0.0051116943359375
-0.00762939453125,0.01255035400390625
-0.01331329345703125,-0.01377105712890625
0.03173828125,-0.001678466796875
0.01056671142578125,-0.00041961669921875
0.01621246337890625,0.0159454345703125
-0.01720428466796875,0.00232696533203125
0.00797271728515625,3.814697265625e-05
-0.00682830810546875,-0.00049591064453125
-0.01483917236328125,0.0101470947265625
0.0118255615234375,0.00682830810546875
-0.0014495849609375,-0.0014495849609375
0.0075531005859375,-0.02079010009765625
-0.0421905517578125,0.01628875732421875
0.00446319580078125,-0.00186920166015625
0.01529693603515625,0.00537872314453125
0.00213623046875,0.000457763671875
-0.006103515625,0.00019073486328125
0.02407073974609375,-0.00438690185546875
0.02208709716796875,0.00762939453125
0.0543975830078125,0.00568389892578125
0.0104522705078125,0.00080108642578125
0.00164031982421875,-0.00438690185546875
-0.00026702880859375,0.0066375732421875
-0.00560760498046875,0.03082275390625
0.00102996826171875,0.000762939453125
-0.00026702880859375,0.00476837158203125
0.01407623291015625,0.0252532958984375
-0.006866455078125,0.0069427490234375
0.00629425048828125,-0.0121307373046875
0.00278472900390625,-0.00080108642578125
0.01495361328125,0.00057220458984375
-0.0063323974609375,0.00598907470703125
0.0041961669921875,0.00152587890625
-0.0038909912109375,0.025787353515625
-0.01827239990234375,0.00080108642578125
-0.00518798828125,0.00164031982421875
0.0061798095703125,0.0055694580078125
-0.002288818359375,0.03017425537109375
0.002899169921875,-0.011444091796875
0.0061798095703125,-0.003204345703125
0.0030517578125,-0.0522613525390625
-0.00530242919921875,0.01651763916015625
0.00858306884765625,0.00446319580078125
0.01003265380859375,-0.03040313720703125
-0.01216888427734375,-0.0043487548828125
-0.00576019287109375,-0.01552581787109375
0.00274658203125,0.00507354736328125
0.01743316650390625,0.0067138671875
-0.00217437744140625,0.01323699951171875
0.01354217529296875,0.00209808349609375
-0.01224517822265625,0.00148773193359375
0.0016021728515625,-0.00152587890625
-0.02777099609375,0.0101470947265625
-0.04711151123046875,0.00354766845703125
0.00701904296875,0.013427734375
0.00896453857421875,-0.02307891845703125
0.010223388671875,0.00209808349609375
0.01880645751953125,0.00118255615234375
0.01857757568359375,-0.0144195556640625
0.00705718994140625,-0.0008392333984375
0.02529144287109375,-0.009918212890625
0.00095367431640625,-0.0048828125
-0.00141143798828125,-0.00835418701171875
-0.0060272216796875,0.00019073486328125
0.01651763916015625,0.00530242919921875
0.00579833984375,-0.03597259521484375
0.0202178955078125,0.01377105712890625
-0.0087738037109375,-0.00431060791015625
0.0032806396484375,-0.00270843505859375
0.00072479248046875,0.00732421875
0.0266265869140625,0.01667022705078125
0.00091552734375,0.0025177001953125
-0.005645751953125,-0.00118255615234375
-0.00339508056640625,-0.00202178955078125
0.00308990478515625,0.00797271728515625
0.018768310546875,0.01697540283203125
0.0066375732421875,0.00030517578125
0.00209808349609375,0.0177001953125
0.11371612548828125,0.00583648681640625
-0.00194549560546875,-0.00293731689453125
-0.00278472900390625,0.0034332275390625
0.01049041748046875,-0.0066375732421875
-0.0109100341796875,0.0011444091796875
-0.012359619140625,-0.00133514404296875
-0.023345947265625,-0.0020599365234375
0.00408172607421875,-0.007476806640625
0.00225067138671875,0.00377655029296875
0.0075531005859375,0.0194549560546875
-0.00148773193359375,-0.00720977783203125
0.0077056884765625,0.00400543212890625
-0.0145721435546875,-0.00423431396484375
-0.00171661376953125,0.0017547607421875
-0.0286102294921875,-0.00286102294921875
-0.00545501708984375,0.00213623046875
-0.00873565673828125,0.0086212158203125
-0.004119873046875,0.02277374267578125
0.00274658203125,0.00823974609375
0.0244903564453125,-0.0046539306640625
-0.00194549560546875,0.00553131103515625
-0.0710296630859375,-0.01049041748046875
-0.0844573974609375,0.00347137451171875
-0.00080108642578125,-0.00926971435546875
-0.00804901123046875,0.0102996826171875
0.00675201416015625,0.0045013427734375
0.014495849609375,0.00091552734375
0.012054443359375,-0.00812530517578125
0.0046539306640625,0.00354766845703125
-0.00213623046875,0.0037384033203125
0.03543853759765625,-0.0110626220703125
0.0070953369140625,-0.02498626708984375
0.0042724609375,-0.01323699951171875
0.00988006591796875,-0.00957489013671875
0.0084686279296875,0.0005340576171875
-0.0255584716796875,-0.00057220458984375
0.01659393310546875,0.00232696533203125
0.03368377685546875,0.017547607421875
0.0067138671875,-0.00720977783203125
-0.006256103515625,-0.003204345703125
-0.008697509765625,-0.01132965087890625
0.01010894775390625,0.00568389892578125
0.00370025634765625,0.000762939453125
0.0016021728515625,0.0064849853515625
-0.03772735595703125,-0.0008392333984375
-0.0070953369140625,0.01056671142578125
-0.00598907470703125,0.0042724609375
0.00438690185546875,0.008544921875
-0.01621246337890625,0.00095367431640625
-0.0037384033203125,-0.004730224609375
0.0164031982421875,-0.0005340576171875
0.02674102783203125,7.62939453125e-05
-0.0090789794921875,-0.0035858154296875
0.00637054443359375,0.00179290771484375
0.0064849853515625,0.0070953369140625
-0.01293182373046875,-0.010833740234375
-0.0241851806640625,-0.00152587890625
0.02685546875,0.00316619873046875
0.007171630859375,-0.00324249267578125
0.004730224609375,-0.0136566162109375
-0.00926971435546875,-0.01186370849609375
0.0110626220703125,-0.0109100341796875
-0.00820159912109375,0.0083160400390625
0.0080108642578125,0.001678466796875
0.00732421875,0.012054443359375
0.01171112060546875,0.00232696533203125
0.0061798095703125,0.00141143798828125
0.00102996826171875,-0.0089263916015625
-0.0167083740234375,0.0054168701171875
-0.0482940673828125,-0.0034332275390625
0.00637054443359375,-0.00102996826171875
-0.00110626220703125,0.00152587890625
0.017242431640625,0.01300811767578125
-0.01873016357421875,0.0051116943359375
-0.01995086669921875,-0.00034332275390625
0.018768310546875,-0.00026702880859375
0.020599365234375,0.00091552734375
0.00213623046875,0.018463134765625
-0.00316619873046875,0.00148773193359375
-0.026092529296875,0.0037384033203125
0.0048828125,-0.007781982421875
0.00942230224609375,0.009613037109375
0.01590728759765625,-0.00888824462890625
-0.00835418701171875,0.00553131103515625
0.0151824951171875,-0.0180816650390625
0.00827789306640625,0.00019073486328125
0.0066375732421875,-0.02086639404296875
0.00301361083984375,0.0061798095703125
-0.0209808349609375,0.00202178955078125
-0.0508880615234375,-0.00408172607421875
0.01068115234375,-0.01041412353515625
0.00415802001953125,-0.004730224609375
0.00858306884765625,0.0014495849609375
-0.00125885009765625,-0.002899169921875
-0.00385284423828125,-0.0066375732421875
-0.003204345703125,0.005645751953125
-0.00087738037109375,-0.003204345703125
0.00091552734375,-0.00858306884765625
0.00911712646484375,0.0043487548828125
-0.00335693359375,0.0016021728515625
-0.006866455078125,-0.01651763916015625
-0.0023651123046875,-0.0034332275390625
-0.016021728515625,-0.00751495361328125
0.00614166259765625,-0.0432586669921875
-0.0066375732421875,0.001678466796875
0.00064849853515625,0.00446319580078125
-0.03559112548828125,0.00225067138671875
0.00484466552734375,-0.01178741455078125
0.002288818359375,0.005035400390625
-0.01117706298828125,0.0026702880859375
0.02254486083984375,0.00072479248046875
-0.00095367431640625,-0.00148773193359375
0.0080108642578125,0.0031280517578125
-0.0003814697265625,-0.0034332275390625
-0.00782012939453125,-0.02105712890625
-0.03406524658203125,0.00274658203125
0.02696990966796875,0.0070953369140625
-0.00209808349609375,-0.00789642333984375
-0.00354766845703125,0.003509521484375
0.00446319580078125,0.00026702880859375
0.00804901123046875,0.000762939453125
-0.0091552734375,0.00274658203125
0.01026153564453125,-0.04749298095703125
-0.0307464599609375,0.0064849853515625
0.01922607421875,0.00614166259765625
-0.00034332275390625,0.0043487548828125
0.00396728515625,0.0048828125
-0.01434326171875,0.01773834228515625
0.0018310546875,0.00835418701171875
0.0054931640625,0.01129150390625
0.0090789794921875,-0.01552581787109375
0.00507354736328125,-0.0046539306640625
0.00339508056640625,0.004119873046875
-0.01407623291015625,-0.00164031982421875
0.0046539306640625,0.0034332275390625
0.00232696533203125,0.0022125244140625
0.00972747802734375,-0.00057220458984375
0.00080108642578125,0.03284454345703125
-0.0012969970703125,-0.00667572021484375
0.00354766845703125,-0.0026702880859375
-0.004730224609375,0.00064849853515625
-0.00186920166015625,0.03116607666015625
-0.00476837158203125,-0.00621795654296875
-0.0022125244140625,-0.0124359130859375
-0.01697540283203125,-0.0006866455078125
0.0264739990234375,-0.010528564453125
0.00072479248046875,0.00728607177734375
0.01087188720703125,0.0032806396484375
0.0064849853515625,0.0090789794921875
-0.0009918212890625,0.00782012939453125
-0.01834869384765625,0.00644683837890625
-0.01392364501953125,0.0006866455078125
0.00095367431640625,0.0045013427734375
0.00995635986328125,0.00514984130859375
-0.0131988525390625,0.0064849853515625
-0.00255584716796875,0.00156402587890625
-0.0009918212890625,-0.0016021728515625
-0.01461029052734375,0.0023651123046875
0.00682830810546875,0.00614166259765625
0.008697509765625,0.000762939453125
-0.00301361083984375,0.005645751953125
0.00667572021484375,-0.01041412353515625
0.01338958740234375,0.005950927734375
0.0020599365234375,0.00431060791015625
0.0054931640625,0.0075531005859375
0.01537322998046875,-0.00110626220703125
-0.00514984130859375,0.00240325927734375
0.0011444091796875,-0.0041961669921875
-0.02338409423828125,0.02384185791015625
0.00728607177734375,-0.0243377685546875
-0.023956298828125,0.02105712890625
-0.008697509765625,-0.01201629638671875
0.000457763671875,0.00568389892578125
0.0232696533203125,0.0052642822265625
0.0017547607421875,0.00583648681640625
0.00156402587890625,0.00339508056640625
-0.016326904296875,0.01857757568359375
0.007781982421875,0.00392913818359375
0.00316619873046875,0.0110626220703125
0.00576019287109375,-0.00392913818359375
-0.0241851806640625,-0.0145721435546875
0.0029754638671875,-0.00774383544921875
-0.00232696533203125,0.005950927734375
0.01644134521484375,-0.01300811767578125
-0.0006103515625,0.04486083984375
0.00244140625,-0.006866455078125
-0.01056671142578125,0.0032806396484375
-0.0506591796875,-0.00850677490234375
-0.04268646240234375,0.01178741455078125
0.0005340576171875,0.00225067138671875
0.0177764892578125,0.0029754638671875
-0.00164031982421875,-0.00591278076171875
0.0022125244140625,0.0205230712890625
-0.00507354736328125,-0.0020599365234375
0.0057220458984375,0.00354766845703125
0.0074005126953125,-0.00041961669921875
0.0029754638671875,0.02170562744140625
-0.0011444091796875,-0.007171630859375
0.0019073486328125,0.00446319580078125
-0.00377655029296875,0.00530242919921875
0.00102996826171875,0.00301361083984375
-0.0104522705078125,0.01697540283203125
-0.00164031982421875,0.00133514404296875
0.02773284912109375,0.00522613525390625
-0.0154876708984375,0.03082275390625
0.01422882080078125,0.00247955322265625
-0.000762939453125,0.0054931640625
0.00682830810546875,-0.00019073486328125
-0.006561279296875,-0.014801025390625
-0.011138916015625,0.00091552734375
0.00453948974609375,0.00579833984375
-0.010833740234375,0.000762939453125
0.03833770751953125,-0.00713348388671875
-0.0099945068359375,-0.00110626220703125
0.05229949951171875,-0.01361846923828125
-0.01445770263671875,0.00774383544921875
0.00919342041015625,-0.01880645751953125
0.01880645751953125,0.00537872314453125
0.00263214111328125,-0.00873565673828125
0.0028228759765625,0.00339508056640625
7.62939453125e-05,-0.0023651123046875
0.02277374267578125,-0.0084686279296875
0.0051116943359375,-0.00156402587890625
-0.00885009765625,0.0006866455078125
0.001983642578125,-0.00110626220703125
-0.000152587890625,0.00579833984375
0.02399444580078125,0.00835418701171875
0.02742767333984375,-0.0067901611328125
-0.00865936279296875,-0.0067901611328125
0.02407073974609375,0.00080108642578125
-0.0152587890625,0.00446319580078125
0.0018310546875,-0.001373291015625
0.01697540283203125,0.00598907470703125
0.00995635986328125,0.03711700439453125
0.00141143798828125,-0.00034332275390625
-0.01850128173828125,-0.0084686279296875
-0.03749847412109375,0.00400543212890625
0.00274658203125,0.00011444091796875
-0.04001617431640625,0.0420379638671875
-0.03368377685546875,-0.01094818115234375
0.01911163330078125,0.0191497802734375
0.0116729736328125,-0.0020599365234375
0.00331878662109375,-0.0072479248046875
-0.00213623046875,-0.00186920166015625
0.00858306884765625,0.01529693603515625
0.00423431396484375,-0.00270843505859375
0.00492095947265625,0.0037384033203125
-0.00286102294921875,-0.00530242919921875
0.00213623046875,0.01544952392578125
0.00614166259765625,-0.00339508056640625
-0.01514434814453125,0.0035858154296875
-0.005035400390625,-0.00110626220703125
0.00492095947265625,0.0171661376953125
0.01209259033203125,0.0061798095703125
0.01201629638671875,0.00408172607421875
-0.00782012939453125,0.00720977783203125
0.00263214111328125,-0.0029754638671875
-0.0323486328125,-0.00545501708984375
-0.01033782958984375,0.00926971435546875
0.01483917236328125,-0.00621795654296875
-0.0029754638671875,-0.04123687744140625
0.0040435791015625,-0.00156402587890625
-0.0005340576171875,0.0028228759765625
-0.0081634521484375,0.0003814697265625
0.0011444091796875,0.00339508056640625
-0.00202178955078125,0.01495361328125
-0.00476837158203125,-0.00865936279296875
-0.0063323974609375,-0.00278472900390625
-0.02986907958984375,-0.01399993896484375
-0.01220703125,0.00331878662109375
0.00408172607421875,0.01308441162109375
0.00537872314453125,0.01148223876953125
0.00579833984375,0.00274658203125
-0.0206756591796875,-0.00766754150390625
-0.0263214111328125,0.0091552734375
0.00972747802734375,0.00713348388671875
0.00995635986328125,-0.0057220458984375
0.0246429443359375,-0.0084686279296875
-0.00293731689453125,0.00141143798828125
0.0038909912109375,-0.0194549560546875
-0.0255584716796875,-0.00247955322265625
0.006103515625,-0.00453948974609375
-0.04154205322265625,0.00568389892578125
-0.00751495361328125,0.00049591064453125
-0.00823974609375,0.00476837158203125
0.0151824951171875,-0.0220489501953125
-0.0006866455078125,-0.0002288818359375
0.00606536865234375,-0.00118255615234375
-0.022430419921875,0.0113677978515625
-0.0014495849609375,-0.0018310546875
-0.0011444091796875,0.001373291015625
0.00202178955078125,0.00209808349609375
0.0003814697265625,0.02330780029296875
0.014190673828125,0.01262664794921875
0.03826141357421875,-0.020294189453125
0.05523681640625,-0.00530242919921875
-0.00873565673828125,0.00598907470703125
0.02475738525390625,0.001373291015625
-0.01636505126953125,0.01628875732421875
0.00152587890625,0.0011444091796875
-0.02086639404296875,0.000152587890625
-0.00400543212890625,-0.00469207763671875
3.814697265625e-05,-0.00156402587890625
0.015716552734375,0.0118255615234375
0.00339508056640625,0.00537872314453125
-0.0431060791015625,-0.00705718994140625
0.01270294189453125,0.00274658203125
-0.0087738037109375,0.0087738037109375
0.015106201171875,0.0074005126953125
0.0022125244140625,0.00263214111328125
-0.0084686279296875,0.00518798828125
0.0049591064453125,-0.00965118408203125
0.004730224609375,0.00141143798828125
0.00156402587890625,0.00186920166015625
0.00919342041015625,0.00545501708984375
0.00453948974609375,-0.00408172607421875
-0.00011444091796875,0.02105712890625
-0.01293182373046875,0.00194549560546875
-0.00774383544921875,0.00091552734375
0.00156402587890625,0.01537322998046875
0.04291534423828125,0.02201080322265625
0.02429962158203125,-0.00881195068359375
0.00064849853515625,-0.00530242919921875
-0.00762939453125,0.00362396240234375
0.01438140869140625,-0.00614166259765625
0.01544952392578125,0.02086639404296875
0.0020599365234375,-0.001373291015625
0.0182342529296875,0.00446319580078125
-0.0145721435546875,-0.00858306884765625
-0.015411376953125,-0.00751495361328125
0.04367828369140625,-0.015869140625
0.00072479248046875,0.00484466552734375
-0.0063323974609375,-0.01522064208984375
-0.00263214111328125,0.00583648681640625
-0.00370025634765625,0.00812530517578125
-0.0037384033203125,0.01628875732421875
-0.00385284423828125,-0.0113677978515625
-0.00019073486328125,0.00446319580078125
-0.00213623046875,-0.01567840576171875
-0.00644683837890625,0.00682830810546875
0.00270843505859375,0.0040435791015625
0.00263214111328125,0.00972747802734375
0.059356689453125,-0.0069427490234375
-0.00560760498046875,0.00171661376953125
-0.0151824951171875,-0.01434326171875
-0.00377655029296875,0.01323699951171875
0.00469207763671875,-0.002288818359375
0.02124786376953125,0.01811981201171875
0.0014495849609375,-0.0171661376953125
-0.000762939453125,-0.003662109375
0.03345489501953125,-0.03803253173828125
0.01018524169921875,-0.00125885009765625
-0.00598907470703125,0.00400543212890625
0.01636505126953125,0.00202178955078125
-0.00762939453125,-0.0063323974609375
-0.03627777099609375,-0.00911712646484375
-0.00213623046875,0.00507354736328125
-0.00041961669921875,0.0092315673828125
0.00469207763671875,0.027313232421875
-0.00995635986328125,-0.00774383544921875
0.00339508056640625,-0.00148773193359375
-0.0110626220703125,-0.0089263916015625
-0.034332275390625,0.01514434814453125
7.62939453125e-05,0.0038909912109375
0.0283050537109375,-0.0005340576171875
0.000457763671875,-0.0086212158203125
0.01514434814453125,0.00659942626953125
-0.00202178955078125,0.0054931640625
-0.0193023681640625,0.02475738525390625
0.00370025634765625,0.01514434814453125
0.00286102294921875,-0.003204345703125
-0.02529144287109375,-0.00568389892578125
-0.023040771484375,0.00762939453125
-0.01132965087890625,0.0040435791015625
0.01209259033203125,0.00240325927734375
-0.0180816650390625,-0.00080108642578125
0.04451751708984375,0.003814697265625
-0.01617431640625,0.00438690185546875
0.013580322265625,0.00946044921875
-0.0077056884765625,0.00335693359375
-0.00888824462890625,0.0034332275390625
0.0031280517578125,0.0078582763671875
0.0061798095703125,-0.011749267578125
0.0103759765625,0.00514984130859375
-0.0339508056640625,-0.00049591064453125
0.00545501708984375,0.00881195068359375
-0.0138092041015625,0.00751495361328125
0.00293731689453125,0.00102996826171875
0.00743865966796875,-0.0052642822265625
0.0223541259765625,-0.0152587890625
0.0009918212890625,0.00453948974609375
0.00263214111328125,0.00156402587890625
0.022735595703125,0.00759124755859375
0.000457763671875,-0.00118255615234375
0.00270843505859375,0.00667572021484375
-0.0139617919921875,-0.0249481201171875
0.01079559326171875,-0.0002288818359375
-0.006866455078125,0.0023651123046875
0.010986328125,0.00885009765625
0.01140594482421875,0.0083160400390625
0.00732421875,0.0311279296875
-0.0157928466796875,-0.04482269287109375
-0.02864837646484375,-0.05596160888671875
0.00118255615234375,-0.0006866455078125
0.0202178955078125,-0.0127410888671875
0.003662109375,0.00339508056640625
0.0012969970703125,-0.00354766845703125
-0.01293182373046875,0.0074005126953125
-0.0017547607421875,0.0041961669921875
0.0045013427734375,-0.01331329345703125
-0.00850677490234375,-0.00164031982421875
-0.01026153564453125,-0.00568389892578125
0.00457763671875,-0.00701904296875
-0.00049591064453125,0.001983642578125
0.01934051513671875,-0.00125885009765625
0.00537872314453125,0.00415802001953125
-0.00553131103515625,-0.00057220458984375
-0.0167083740234375,0.01438140869140625
-0.00213623046875,-0.00881195068359375
0.01804351806640625,0.00316619873046875
-0.00148773193359375,-0.00217437744140625
0.01972198486328125,-0.00011444091796875
-0.00690460205078125,-0.00164031982421875
-0.012969970703125,-0.03383636474609375
0.01117706298828125,0.00446319580078125
0.00087738037109375,0.00499725341796875
0.016021728515625,-0.0119781494140625
0.00499725341796875,-0.00041961669921875
-0.00518798828125,0.00133514404296875
0.01251220703125,-0.0147247314453125
-0.00213623046875,0.0025177001953125
0.00782012939453125,-0.03307342529296875
0.00270843505859375,0.0202178955078125
0.00335693359375,0.00171661376953125
-0.0154876708984375,0.00576019287109375
-0.01377105712890625,-0.0159454345703125
0.023651123046875,0.00396728515625
0.006103515625,0.00133514404296875
-0.00659942626953125,0.00041961669921875
0.00377655029296875,-0.00667572021484375
0.00820159912109375,0.00118255615234375
-0.00713348388671875,-0.0063323974609375
0.0011444091796875,0.014495849609375
0.03215789794921875,0.01483917236328125
-0.0106048583984375,-0.00492095947265625
-0.00713348388671875,0.01682281494140625
-0.00392913818359375,-0.0052642822265625
0.020294189453125,-3.814697265625e-05
0.05878448486328125,-0.01598358154296875
-0.011138916015625,0.0104522705078125
0.00881195068359375,0.00034332275390625
-0.01155853271484375,0.0030517578125
0.00331878662109375,0.00202178955078125
-0.04154205322265625,0.02033233642578125
0.0170135498046875,0.0006866455078125
0.00213623046875,-0.003814697265625
0.0023651123046875,0.008697509765625
-0.00644683837890625,-0.0002288818359375
0.01361846923828125,0.00263214111328125
-0.005645751953125,0.00720977783203125
-0.0072479248046875,0.005340576171875
-0.0008392333984375,0.00774383544921875
0.0124359130859375,-0.01110076904296875
0.003509521484375,-0.00274658203125
0.003814697265625,0.00080108642578125
0.0146484375,0.00732421875
-0.0048065185546875,-0.00026702880859375
0.00278472900390625,-0.00957489013671875
-0.02101898193359375,0.0026702880859375
-0.0012969970703125,0.01735687255859375
0.05207061767578125,0.00415802001953125
0.0090789794921875,0.0034332275390625
-0.00278472900390625,0.00946044921875
0.00293731689453125,0.0089263916015625
-0.0025177001953125,0.00423431396484375
-0.01003265380859375,-0.0040435791015625
-0.0110626220703125,0.0080108642578125
-0.0299835205078125,0.0439453125
0.04520416259765625,0.0121307373046875
0.0057220458984375,-0.01049041748046875
-0.00225067138671875,0.00118255615234375
-0.01682281494140625,-0.0060272216796875
0.00339508056640625,0.00850677490234375
-0.0174713134765625,0.00225067138671875
0.00072479248046875,0.0016021728515625
0.00568389892578125,0.00316619873046875
-0.00579833984375,0.007781982421875
0.0018310546875,0.02925872802734375
0.02483367919921875,-0.00274658203125
0.01911163330078125,-0.02048492431640625
0.0146484375,-0.01415252685546875
-0.02475738525390625,-0.01819610595703125
0.00156402587890625,0.0066375732421875
-0.01781463623046875,-0.00148773193359375
0.0035858154296875,-0.0189208984375
-0.00667572021484375,-0.00095367431640625
-0.0152587890625,0.00186920166015625
-0.00583648681640625,-0.0038909912109375
0.0092315673828125,0.0028228759765625
0.0034332275390625,-0.00293731689453125
-0.04405975341796875,-0.00942230224609375
-0.00904083251953125,0.0131988525390625
0.01735687255859375,-0.0009918212890625
0.0022125244140625,0.00461578369140625
0.0016021728515625,-0.031280517578125
-0.0080108642578125,-0.00255584716796875
-0.005645751953125,-0.0060272216796875
-0.00667572021484375,0.001373291015625
0.023040771484375,-0.00072479248046875
0.001373291015625,0.013885498046875
0.00202178955078125,0.0018310546875
0.001068115234375,-0.01041412353515625
-0.00415802001953125,-0.0048065185546875
-0.0359344482421875,-0.00110626220703125
0.05084991455078125,0.01270294189453125
0.008087158203125,-0.0055694580078125
0.00263214111328125,-0.01171112060546875
-0.01331329345703125,0.0066375732421875
-0.0208282470703125,0.00911712646484375
-0.00171661376953125,0.006256103515625
0.00278472900390625,-0.0006866455078125
0.005950927734375,0.005340576171875
-0.00415802001953125,-0.000762939453125
-0.00392913818359375,-0.001983642578125
-0.02071380615234375,0.0103759765625
0.00171661376953125,0.00209808349609375
0.00888824462890625,0.01155853271484375
0.01110076904296875,-0.00408172607421875
-0.00274658203125,0.00148773193359375
0.00232696533203125,0.00331878662109375
-0.02040863037109375,0.002593994140625
0.00415802001953125,-0.0006866455078125
-0.001220703125,-0.00484466552734375
0.00823974609375,-0.0115966796875
-0.00049591064453125,-0.02025604248046875
0.01255035400390625,-0.0060272216796875
0.00247955322265625,0.00064849853515625
0.01094818115234375,-0.0131988525390625
0.0034332275390625,0.0054168701171875
0.00507354736328125,-0.00293731689453125
-0.000152587890625,0.00270843505859375
-0.00865936279296875,0.0345611572265625
0.00507354736328125,-0.0083160400390625
0.001373291015625,-0.0032806396484375
-0.0112152099609375,0.01255035400390625
0.0016021728515625,-0.00110626220703125
-0.00888824462890625,0.01537322998046875
0.00843048095703125,0.0006103515625
7.62939453125e-05,0.007781982421875
0.0040435791015625,0.0057220458984375
0.00492095947265625,-0.00545501708984375
0.001068115234375,0.00232696533203125
0.00820159912109375,0.00457763671875
0.0055694580078125,-0.00057220458984375
-0.0038909912109375,0.00865936279296875
-0.00335693359375,0.0058746337890625
-0.00064849853515625,0.02384185791015625
0.00034332275390625,0.00034332275390625
0.02124786376953125,-0.00698089599609375
0.0170135498046875,0.00164031982421875
-0.0360107421875,-0.0042724609375
0.00064849853515625,0.00095367431640625
-0.00553131103515625,0.00095367431640625
0.0046539306640625,0.01194000244140625
0.01285552978515625,0.02338409423828125
0.00644683837890625,0.00324249267578125
0.0067901611328125,-0.0201416015625
0.00308990478515625,0.0260162353515625
0.00873565673828125,0.00270843505859375
-0.0045013427734375,0.0159454345703125
0.00766754150390625,0.01270294189453125
-0.010223388671875,0.00553131103515625
0.00560760498046875,-0.0063323974609375
-0.0510406494140625,0.0029754638671875
-0.0081634521484375,-0.00396728515625
0.0019073486328125,0.00823974609375
-0.019683837890625,-0.00858306884765625
-0.00553131103515625,-0.00110626220703125
-7.62939453125e-05,-0.005645751953125
0.00347137451171875,0.0069427490234375
-0.01262664794921875,-0.02025604248046875
-0.0151824951171875,0.02223968505859375
-0.001678466796875,-0.00537872314453125
-0.00148773193359375,-0.0135040283203125
0.0023651123046875,-0.0072479248046875
0.00606536865234375,0.02849578857421875
0.02162933349609375,0.005035400390625
-0.003204345703125,-0.00514984130859375
-0.00698089599609375,-0.0041961669921875
0.00926971435546875,-0.00537872314453125
-7.62939453125e-05,0.007781982421875
0.00919342041015625,-0.00133514404296875
0.029754638671875,0.00652313232421875
-0.00339508056640625,-0.00400543212890625
0.00301361083984375,0.02246856689453125
0.0146484375,0.01270294189453125
-0.0424957275390625,0.00518798828125
0.0052642822265625,-0.0103759765625
0.0022125244140625,-0.021820068359375
0.003204345703125,-0.00164031982421875
-0.00011444091796875,-0.000457763671875
0.00415802001953125,-0.00598907470703125
0.00469207763671875,0.00438690185546875
0.03055572509765625,-0.01453399658203125
0.00652313232421875,0.0034332275390625
0.00148773193359375,0.0022125244140625
0.0142669677734375,0.015106201171875
-0.0334930419921875,0.00843048095703125
0.00499725341796875,0.00484466552734375
0.00614166259765625,-0.00553131103515625
-0.0022125244140625,0.00301361083984375
0.0101470947265625,-0.0421905517578125
0.00598907470703125,0.0139617919921875
0.01514434814453125,-0.00705718994140625
0.01728057861328125,-0.0116729736328125
0.00637054443359375,0.00762939453125
0.0012969970703125,0.00858306884765625
-0.0070953369140625,0.003204345703125
0.02864837646484375,0.00415802001953125
-0.00202178955078125,-0.01178741455078125
-0.02391815185546875,0.0113677978515625
0.0028228759765625,-0.00518798828125
0.00518798828125,-0.00308990478515625
-0.00919342041015625,0.00492095947265625
-0.00049591064453125,-0.00370025634765625
0.00087738037109375,0.015106201171875
0.00244140625,0.0116729736328125
0.00873565673828125,0.00537872314453125
0.05218505859375,-0.00392913818359375
-0.01674652099609375,0.0146484375
-0.00072479248046875,-0.00385284423828125
0.005035400390625,0.01232147216796875
0.0119781494140625,0.00583648681640625
0.00820159912109375,0.0311279296875
0.000457763671875,0.00156402587890625
-0.00156402587890625,0.00377655029296875
0.0084686279296875,-0.00209808349609375
-0.0147247314453125,-0.0054168701171875
-0.00247955322265625,-0.0037384033203125
0.00743865966796875,0.00244140625
0.004730224609375,-0.010986328125
0.00720977783203125,0.0262451171875
-0.008697509765625,0.00030517578125
-0.00179290771484375,-0.00232696533203125
-0.00545501708984375,-0.00049591064453125
0.01373291015625,0.0
0.0064849853515625,0.0093841552734375
0.02033233642578125,-0.02826690673828125
0.01644134521484375,0.0255584716796875
-0.03467559814453125,-0.0092315673828125
-0.00385284423828125,0.0020599365234375
0.01575469970703125,0.00507354736328125
-0.00545501708984375,-0.01247406005859375
0.00087738037109375,-0.015869140625
0.0011444091796875,-0.01033782958984375
0.0063323974609375,-0.0035858154296875
-0.02368927001953125,0.02590179443359375
-0.01079559326171875,0.006256103515625
-0.03173828125,0.00057220458984375
-0.00629425048828125,-0.02887725830078125
0.00225067138671875,0.0130462646484375
-0.05130767822265625,0.00152587890625
0.02651214599609375,0.00469207763671875
0.00518798828125,-0.01125335693359375
0.00324249267578125,-0.0127410888671875
0.0318145751953125,-0.00274658203125
0.0109100341796875,-0.00270843505859375
0.00583648681640625,-0.00896453857421875
0.00518798828125,0.003204345703125
-0.0119781494140625,-0.0008392333984375
0.00736236572265625,-0.00701904296875
0.00484466552734375,-0.00560760498046875
0.011138916015625,0.00247955322265625
-0.00316619873046875,0.03841400146484375
0.013427734375,-0.00202178955078125
-0.0152587890625,0.00457763671875
0.0079345703125,-0.0018310546875
-0.007476806640625,0.00705718994140625
-0.00392913818359375,0.0012969970703125
0.00080108642578125,0.0048828125
-0.0019073486328125,-0.00255584716796875
0.00133514404296875,-0.0017547607421875
0.018310546875,0.00774383544921875
0.03009796142578125,-0.0020599365234375
0.00457763671875,-0.00244140625
0.00019073486328125,0.0048065185546875
0.002899169921875,-0.00186920166015625
0.0003814697265625,0.0074005126953125
0.009002685546875,-0.0292205810546875
0.00232696533203125,0.00354766845703125
-0.0048065185546875,-0.0096893310546875
0.0025177001953125,-0.0002288818359375
-0.0506591796875,0.0019073486328125
-0.00457763671875,0.00972747802734375
0.002288818359375,0.01583099365234375
-0.009765625,-0.0028228759765625
0.00614166259765625,-0.01468658447265625
0.00247955322265625,0.00629425048828125
0.00148773193359375,-0.0042724609375
0.0095367431640625,0.0031280517578125
-0.00263214111328125,-0.00682830810546875
0.046844482421875,-0.00667572021484375
0.01140594482421875,0.0140380859375
-0.00041961669921875,0.00499725341796875
0.04779815673828125,0.0228118896484375
-0.010986328125,0.00186920166015625
0.0041961669921875,0.00179290771484375
-0.0026702880859375,0.036468505859375
0.01636505126953125,0.02124786376953125
-0.0092315673828125,0.01178741455078125
0.0180816650390625,-0.008087158203125
-0.00751495361328125,-0.00644683837890625
-0.006561279296875,0.00782012939453125
0.00164031982421875,0.01148223876953125
0.0493621826171875,-0.0014495849609375
0.00713348388671875,0.0029754638671875
-0.00102996826171875,-0.00743865966796875
0.0431060791015625,0.00980377197265625
-0.0099945068359375,-0.00396728515625
0.009613037109375,0.007171630859375
-0.004119873046875,-0.00270843505859375
0.01537322998046875,0.01270294189453125
-0.0041961669921875,0.01293182373046875
0.0022125244140625,0.01338958740234375
-0.011138916015625,-3.814697265625e-05
-0.00392913818359375,0.00244140625
0.00041961669921875,0.02704620361328125
0.00072479248046875,0.00110626220703125
0.00156402587890625,0.003509521484375
0.01499176025390625,0.01941680908203125
0.0261688232421875,0.01140594482421875
0.007476806640625,0.00274658203125
-0.03650665283203125,-0.01056671142578125
0.00225067138671875,-0.00354766845703125
-0.012359619140625,-0.00446319580078125
0.01964569091796875,-0.0040435791015625
-0.01781463623046875,0.00110626220703125
0.00072479248046875,-0.00751495361328125
-0.0035858154296875,-0.01026153564453125
0.0113677978515625,-0.010223388671875
0.00576019287109375,0.0103759765625
-0.0019073486328125,-0.00385284423828125
-0.0066375732421875,0.003662109375
-0.00335693359375,-0.00713348388671875
-0.0054168701171875,-0.00640869140625
0.02025604248046875,-0.002899169921875
0.00270843505859375,-0.00186920166015625
0.0055694580078125,-0.0043487548828125
0.0048065185546875,-3.814697265625e-05
0.0162506103515625,-0.02315521240234375
0.0055694580078125,0.0267791748046875
0.00690460205078125,0.0042724609375
-0.02422332763671875,0.01125335693359375
-0.01003265380859375,-0.0144195556640625
-0.00064849853515625,0.00278472900390625
0.00049591064453125,0.02330780029296875
0.00392913818359375,-0.00019073486328125
0.00186920166015625,-0.0202178955078125
0.00354766845703125,-0.00392913818359375
-0.018157958984375,0.006561279296875
-0.01506805419921875,-0.00019073486328125
-0.01209259033203125,0.00705718994140625
0.0372314453125,0.00232696533203125
0.02544403076171875,-0.00484466552734375
0.04852294921875,0.022735595703125
0.00545501708984375,-0.0011444091796875
-0.0074005126953125,-0.00286102294921875
-0.00080108642578125,-0.00408172607421875
0.0026702880859375,0.006103515625
-0.01873016357421875,-0.0077056884765625
-0.00629425048828125,-0.00782012939453125
0.01140594482421875,-0.0032806396484375
-0.010833740234375,0.0025177001953125
0.0022125244140625,-0.011749267578125
0.007476806640625,0.0026702880859375
-0.04528045654296875,0.00278472900390625
-0.003204345703125,-0.0023651123046875
0.00751495361328125,-0.02414703369140625
-0.00049591064453125,0.00560760498046875
-0.0232696533203125,-0.0263214111328125
-0.00888824462890625,-0.00682830810546875
-0.0087738037109375,-0.00171661376953125
0.03307342529296875,-0.00263214111328125
0.00240325927734375,0.0070953369140625
0.00492095947265625,0.002899169921875
-0.0040435791015625,0.0078582763671875
-0.0705718994140625,-0.00797271728515625
-0.00858306884765625,0.00713348388671875
0.0061798095703125,0.00171661376953125
0.04669189453125,0.01125335693359375
-0.00606536865234375,-0.0048828125
0.00919342041015625,0.01102447509765625
-0.01331329345703125,-0.00560760498046875
0.00812530517578125,-0.0006866455078125
0.02468109130859375,-0.01110076904296875
0.02170562744140625,0.00202178955078125
0.005340576171875,0.0011444091796875
0.0154876708984375,-0.0150299072265625
-0.00461578369140625,0.018157958984375
0.06763458251953125,-0.0086212158203125
0.00732421875,0.01018524169921875
0.01735687255859375,-0.00713348388671875
-0.0049591064453125,0.00133514404296875
0.009307861328125,0.00091552734375
0.00782012939453125,0.015869140625
-7.62939453125e-05,0.01621246337890625
-0.00354766845703125,0.00072479248046875
0.00377655029296875,-0.00431060791015625
-0.03101348876953125,0.0347137451171875
-0.00934600830078125,0.0152587890625
0.00194549560546875,0.01392364501953125
-0.02349853515625,0.01071929931640625
0.0083160400390625,0.0025177001953125
-0.0014495849609375,-0.00652313232421875
-0.0019073486328125,0.01041412353515625
0.01495361328125,-0.0012969970703125
0.00072479248046875,0.00446319580078125
0.00415802001953125,-0.00614166259765625
-0.00560760498046875,-0.0127410888671875
-0.01583099365234375,-0.0286865234375
-0.00446319580078125,0.03032684326171875
0.001220703125,-0.00324249267578125
-0.0136566162109375,-0.00965118408203125
-0.003814697265625,-0.02948760986328125
-0.00579833984375,0.0054931640625
0.0072479248046875,0.00690460205078125
0.01682281494140625,0.03376007080078125
0.007171630859375,-0.02895355224609375
0.05924224853515625,-0.00263214111328125
-0.005645751953125,0.00030517578125
-0.00263214111328125,-0.00209808349609375
-0.00141143798828125,0.0042724609375
0.0125885009765625,-0.03810882568359375
-0.0395965576171875,-0.0223541259765625
0.0025177001953125,-0.00308990478515625
-0.0083160400390625,-0.00324249267578125
0.00949859619140625,-0.00148773193359375
0.01007080078125,0.0234222412109375
0.00034332275390625,0.0025177001953125
-0.0167083740234375,0.00530242919921875
0.01007080078125,-0.00080108642578125
0.00133514404296875,0.00476837158203125
0.01094818115234375,0.00274658203125
0.00335693359375,0.0012969970703125
-0.00213623046875,-0.01743316650390625
0.0096893310546875,0.0362396240234375
0.03856658935546875,-0.03589630126953125
0.00926971435546875,0.01384735107421875
0.00965118408203125,0.01308441162109375
0.0045013427734375,0.00377655029296875
-0.04024505615234375,-0.01911163330078125
-0.03734588623046875,0.00370025634765625
0.0012969970703125,-0.00232696533203125
-0.00675201416015625,-0.00576019287109375
-0.0020599365234375,-0.00102996826171875
-0.000457763671875,-0.001068115234375
0.00843048095703125,0.0058746337890625
0.01148223876953125,0.016326904296875
0.008087158203125,-0.01598358154296875
-0.0112152099609375,0.00457763671875
0.00202178955078125,-0.01956939697265625
0.00102996826171875,-0.0017547607421875
-0.01628875732421875,-0.00797271728515625
0.00026702880859375,0.0054168701171875
-0.0148773193359375,-0.00690460205078125
0.00026702880859375,0.0040435791015625
0.00232696533203125,0.00400543212890625
0.0084686279296875,-0.02178192138671875
0.0069427490234375,-0.00629425048828125
0.00396728515625,0.0022125244140625
0.0095367431640625,-0.0420379638671875
-0.03719329833984375,0.00370025634765625
-0.0061798095703125,-0.02887725830078125
0.0054931640625,0.0098419189453125
-0.0299072265625,-0.02651214599609375
0.02796173095703125,-0.02292633056640625
-0.003662109375,0.0008392333984375
0.02201080322265625,-0.0069427490234375
0.00904083251953125,-0.022735595703125
-0.00881195068359375,0.0067901611328125
0.0154876708984375,0.01827239990234375
-0.02349853515625,-0.00072479248046875
-0.00461578369140625,0.00102996826171875
-0.0048828125,-0.0020599365234375
0.01495361328125,0.00255584716796875
0.001678466796875,0.00274658203125
0.00347137451171875,0.0135040283203125
0.03429412841796875,0.00507354736328125
-0.0299072265625,-0.0072479248046875
-0.00972747802734375,0.0012969970703125
-7.62939453125e-05,0.01132965087890625
-0.0029754638671875,0.003204345703125
-0.02658843994140625,0.00965118408203125
-0.00141143798828125,0.008544921875
-0.006256103515625,0.00782012939453125
-0.00789642333984375,-0.0008392333984375
0.0208282470703125,0.0079345703125
0.00148773193359375,-0.01659393310546875
-0.00621795654296875,-0.00263214111328125
0.0005340576171875,0.008392333984375
0.0150299072265625,0.00995635986328125
0.007171630859375,-0.0019073486328125
-0.00621795654296875,-0.0130462646484375
-0.00255584716796875,-0.00507354736328125
0.00850677490234375,-0.00270843505859375
0.024871826171875,-0.0156402587890625
0.01140594482421875,0.00476837158203125
-0.0153350830078125,0.0093841552734375
0.0069427490234375,0.00030517578125
-0.0124359130859375,0.00263214111328125
-0.00263214111328125,-0.0005340576171875
-0.0012969970703125,0.01129150390625
0.01468658447265625,0.0032806396484375
0.006561279296875,0.00545501708984375
-0.03185272216796875,-0.0086212158203125
-0.0113677978515625,-0.01415252685546875
0.0078582763671875,0.007476806640625
0.0110626220703125,0.02109527587890625
-0.0103759765625,-0.02681732177734375
0.01552581787109375,-0.00568389892578125
0.01049041748046875,-0.00644683837890625
-0.0576019287109375,-0.009002685546875
-0.01338958740234375,-0.0079345703125
0.00576019287109375,0.0030517578125
0.0023651123046875,-0.00797271728515625
-0.0159454345703125,-0.0052642822265625
0.006866455078125,0.0052642822265625
0.00659942626953125,-0.00431060791015625
0.00240325927734375,-0.00362396240234375
0.0266265869140625,0.01384735107421875
-0.002593994140625,-0.00965118408203125
0.040283203125,-0.02689361572265625
0.0115203857421875,0.00408172607421875
0.01583099365234375,0.01506805419921875
0.01861572265625,0.0026702880859375
-0.00301361083984375,0.001068115234375
-0.00080108642578125,0.00568389892578125
0.00286102294921875,-0.0043487548828125
0.014801025390625,0.00194549560546875
0.01873016357421875,-0.00263214111328125
0.00667572021484375,0.005035400390625
0.01773834228515625,-0.0045013427734375
0.00179290771484375,0.00030517578125
0.05523681640625,-0.01590728759765625
-0.020599365234375,-0.0030517578125
-0.002593994140625,0.0028228759765625
-0.04718780517578125,-0.01708984375
-0.00240325927734375,-0.00049591064453125
0.0002288818359375,-0.00701904296875
0.00576019287109375,0.00316619873046875
0.00843048095703125,0.003509521484375
0.015869140625,0.0009918212890625
-0.017852783203125,0.020599365234375
0.0032806396484375,-0.00335693359375
0.0092315673828125,0.01750946044921875
-0.0118255615234375,0.00774383544921875
0.00041961669921875,-0.00339508056640625
0.01987457275390625,-0.02803802490234375
-0.0081634521484375,0.01857757568359375
0.01491546630859375,0.00133514404296875
0.01697540283203125,0.001983642578125
0.00232696533203125,-0.0049591064453125
0.0030517578125,0.00171661376953125
-0.02590179443359375,-0.00133514404296875
-0.00331878662109375,0.01789093017578125
-0.00614166259765625,-0.0092315673828125
-0.009918212890625,-0.00362396240234375
-0.00011444091796875,-0.01041412353515625
-0.0432586669921875,0.00560760498046875
0.00507354736328125,0.0011444091796875
-0.000457763671875,-0.0078582763671875
0.00331878662109375,-0.0099945068359375
0.00896453857421875,0.00118255615234375
-0.01575469970703125,0.01312255859375
-0.01659393310546875,-0.00972747802734375
0.00102996826171875,-0.0028228759765625
0.0194549560546875,-0.00274658203125
0.01750946044921875,0.00400543212890625
0.02490997314453125,0.00301361083984375
-0.0086212158203125,0.01323699951171875
-0.00213623046875,-0.00232696533203125
0.01201629638671875,0.01422882080078125
-0.02574920654296875,0.004119873046875
0.00133514404296875,0.00225067138671875
0.0005340576171875,-0.02933502197265625
0.0201416015625,-0.01544952392578125
0.0122833251953125,-0.03147125244140625
0.03826141357421875,0.01209259033203125
0.01827239990234375,-0.00091552734375
0.0081634521484375,-0.00293731689453125
0.01392364501953125,-0.00194549560546875
-0.00301361083984375,0.01018524169921875
0.00400543212890625,0.0028228759765625
0.01255035400390625,0.00576019287109375
-0.02716064453125,-0.018157958984375
-0.008087158203125,-0.0011444091796875
-0.0030517578125,0.00091552734375
-0.00255584716796875,0.0040435791015625
-0.0017547607421875,-0.007171630859375
-0.00579833984375,0.03749847412109375
0.00530242919921875,0.011138916015625
0.01720428466796875,-0.01796722412109375
0.00690460205078125,0.00690460205078125
0.01682281494140625,-0.00171661376953125
0.00095367431640625,0.0150299072265625
0.0109100341796875,0.00762939453125
-0.00225067138671875,0.00217437744140625
-0.00270843505859375,0.0009918212890625
0.00041961669921875,0.002899169921875
0.0140380859375,0.00179290771484375
0.0002288818359375,0.02658843994140625
0.01064300537109375,-0.0096893310546875
0.0026702880859375,-0.00858306884765625
0.0160980224609375,-0.002593994140625
-0.011444091796875,0.0110626220703125
0.000762939453125,0.00019073486328125
-0.00347137451171875,-0.00354766845703125
0.008544921875,-0.00339508056640625
0.002593994140625,0.00881195068359375
0.01312255859375,0.01880645751953125
0.004425048828125,0.0189971923828125
-0.012359619140625,-0.00988006591796875
-0.00072479248046875,0.000457763671875
-0.01331329345703125,0.006561279296875
0.00064849853515625,0.0128936767578125
0.01556396484375,-0.0037384033203125
0.0092315673828125,-0.0128936767578125
0.000457763671875,-0.00553131103515625
-0.0018310546875,0.0042724609375
-0.0083160400390625,-0.00194549560546875
0.0081634521484375,0.00598907470703125
0.00423431396484375,0.0048828125
0.00720977783203125,-0.0023651123046875
0.0040435791015625,-0.0304412841796875
-0.0020599365234375,0.00934600830078125
-0.00034332275390625,-0.01499176025390625
0.02933502197265625,0.0185394287109375
-0.01712799072265625,-0.0133514404296875
0.00637054443359375,0.00732421875
0.00339508056640625,-0.00820159912109375
-0.00965118408203125,0.03173828125
-0.00034332275390625,0.01255035400390625
0.00675201416015625,0.00049591064453125
-0.01789093017578125,0.00118255615234375
0.01674652099609375,-0.00919342041015625
-0.0080108642578125,0.00873565673828125
0.0084686279296875,-0.00396728515625
0.01575469970703125,0.0045013427734375
0.00789642333984375,-0.00213623046875
-0.00293731689453125,0.00537872314453125
-0.0193023681640625,0.00385284423828125
0.00156402587890625,0.004119873046875
-0.01007080078125,-0.020751953125
0.0112152099609375,0.01285552978515625
0.00156402587890625,0.00766754150390625
-0.00133514404296875,0.01071929931640625
0.00400543212890625,0.00080108642578125
-0.0002288818359375,0.01422882080078125
0.02147674560546875,0.0362396240234375
-0.012359619140625,-0.0199127197265625
-0.00591278076171875,-0.00278472900390625
0.00301361083984375,0.0301361083984375
-0.01712799072265625,-0.00240325927734375
-0.0092315673828125,0.005340576171875
0.0057220458984375,-0.00736236572265625
0.0061798095703125,-0.01049041748046875
0.00152587890625,-0.00217437744140625
0.01087188720703125,-0.00946044921875
0.00255584716796875,0.00530242919921875
0.004425048828125,-0.0074005126953125
-0.02079010009765625,-0.00545501708984375
0.0550079345703125,0.0254058837890625
0.0213623046875,0.0147247314453125
0.00736236572265625,-0.01312255859375
0.00209808349609375,0.001678466796875
0.00484466552734375,-0.02025604248046875
-0.01094818115234375,-0.00274658203125
0.01621246337890625,-0.02231597900390625
0.006103515625,0.018157958984375
0.00400543212890625,0.00247955322265625
-0.01773834228515625,0.00339508056640625
-0.003204345703125,0.00843048095703125
-0.00545501708984375,-0.01232147216796875
0.0109100341796875,-0.0003814697265625
-0.0188446044921875,0.02674102783203125
-0.01926422119140625,-0.0034332275390625
-0.00865936279296875,0.00553131103515625
-0.0045013427734375,-0.00255584716796875
0.00152587890625,0.01453399658203125
0.01232147216796875,-0.00133514404296875
0.01674652099609375,0.0020599365234375
0.0012969970703125,-0.025177001953125
0.02811431884765625,-0.0141143798828125
-0.02422332763671875,-0.00457763671875
0.00354766845703125,0.00591278076171875
-0.05565643310546875,0.0022125244140625
-0.00213623046875,0.01129150390625
0.00057220458984375,0.00980377197265625
0.0092315673828125,-0.00049591064453125
-0.00171661376953125,0.00102996826171875
0.04425048828125,0.01148223876953125
-0.0125885009765625,0.00324249267578125
0.00247955322265625,0.00148773193359375
-0.01384735107421875,0.00705718994140625
-0.01495361328125,0.0063323974609375
0.00274658203125,0.02582550048828125
0.03162384033203125,0.00064849853515625
7.62939453125e-05,0.0045013427734375
-0.00286102294921875,-0.00972747802734375
-0.003509521484375,0.02288818359375
0.01308441162109375,-0.01102447509765625
-0.00530242919921875,-0.0008392333984375
0.02117156982421875,-0.00652313232421875
-0.03086090087890625,0.0052642822265625
0.0005340576171875,-0.0083160400390625
0.00034332275390625,0.0019073486328125
-0.01434326171875,0.00331878662109375
-0.02254486083984375,0.01251220703125
-0.03192901611328125,0.01972198486328125
-0.00926971435546875,0.0110626220703125
-0.0066375732421875,0.01190185546875
0.00217437744140625,0.00858306884765625
0.0067901611328125,-0.00843048095703125
-0.0006866455078125,-0.01529693603515625
-0.00545501708984375,-0.0011444091796875
0.00743865966796875,-0.006256103515625
-0.047149658203125,-0.018463134765625
0.0200653076171875,0.00152587890625
0.02056121826171875,0.00415802001953125
0.0067138671875,0.001220703125
-0.01796722412109375,-0.00331878662109375
-0.00102996826171875,0.0006866455078125
0.01491546630859375,-0.00240325927734375
-0.0034332275390625,-0.0038909912109375
-0.00812530517578125,-0.00316619873046875
0.00209808349609375,-0.00743865966796875
-0.00293731689453125,-0.003204345703125
0.01537322998046875,0.00423431396484375
-0.0042724609375,-0.00148773193359375
-0.0006866455078125,0.00743865966796875
-0.0235748291015625,-0.00614166259765625
0.00499725341796875,0.00530242919921875
0.00064849853515625,0.00240325927734375
-0.0046539306640625,-0.00637054443359375
-0.0043487548828125,-0.003204345703125
0.05733489990234375,-0.00244140625
-0.004730224609375,-0.02475738525390625
0.01132965087890625,0.00125885009765625
-0.01178741455078125,-0.01422882080078125
-0.0232696533203125,0.0101470947265625
-0.0179290771484375,-0.0226593017578125
0.00644683837890625,0.00011444091796875
0.00514984130859375,0.001220703125
0.03292083740234375,-0.00682830810546875
0.0067138671875,0.0104522705078125
0.00823974609375,0.01194000244140625
-0.03017425537109375,0.01491546630859375
0.0074005126953125,0.00240325927734375
-3.814697265625e-05,0.01445770263671875
0.0257110595703125,-0.00469207763671875
0.00202178955078125,0.0037384033203125
0.00133514404296875,-0.0145721435546875
0.0016021728515625,-0.00324249267578125
0.00232696533203125,0.016326904296875
0.01708984375,0.02201080322265625
-0.09143829345703125,0.00980377197265625
-0.0164031982421875,0.001220703125
-0.024566650390625,0.00644683837890625
-0.00370025634765625,0.00041961669921875
0.00324249267578125,0.0020599365234375
0.02162933349609375,0.00335693359375
-0.002899169921875,0.00133514404296875
0.00476837158203125,0.0005340576171875
-0.007171630859375,0.00537872314453125
0.00392913818359375,0.0074005126953125
0.0020599365234375,0.0022125244140625
0.050506591796875,-0.00217437744140625
-0.009002685546875,-0.023193359375
0.00339508056640625,-0.0006103515625
-0.00240325927734375,0.00537872314453125
0.02017974853515625,-0.00225067138671875
0.01270294189453125,-0.0070953369140625
-0.0630950927734375,-0.01453399658203125
-0.00736236572265625,-0.000457763671875
0.01506805419921875,0.00438690185546875
-0.00469207763671875,0.00438690185546875
0.0060272216796875,0.002593994140625
0.0260162353515625,0.0312042236328125
0.0115203857421875,-0.00820159912109375
0.00675201416015625,-0.00347137451171875
0.0022125244140625,0.0041961669921875
0.01117706298828125,0.0141143798828125
0.0009918212890625,-0.01300811767578125
0.02391815185546875,-0.00400543212890625
0.00030517578125,0.00858306884765625
-0.01659393310546875,0.0063323974609375
-0.004730224609375,-0.00091552734375
0.013580322265625,-0.00980377197265625
0.01300811767578125,-0.00576019287109375
-0.0217437744140625,0.00453948974609375
-0.0257110595703125,0.0235748291015625
-0.01312255859375,-0.0046539306640625
-0.00644683837890625,0.0091552734375
0.00720977783203125,0.0086212158203125
-0.0041961669921875,0.001220703125
-0.0098419189453125,-0.01079559326171875
-0.0176239013671875,0.02811431884765625
-0.02933502197265625,-0.00438690185546875
0.01007080078125,0.0130462646484375
0.0205230712890625,0.00640869140625
-0.025634765625,-0.00034332275390625
0.0211334228515625,-0.01415252685546875
-0.0446319580078125,-0.00370025634765625
-0.00347137451171875,-0.009307861328125
0.0202178955078125,-0.0003814697265625
-0.00431060791015625,0.00179290771484375
0.001373291015625,0.00186920166015625
-0.01277923583984375,0.00244140625
-0.05062103271484375,0.00762939453125
0.012054443359375,0.00942230224609375
0.00919342041015625,0.01560211181640625
-0.0018310546875,-0.00530242919921875
0.001678466796875,-0.00278472900390625
-0.00125885009765625,0.00377655029296875
0.00400543212890625,0.021820068359375
0.004119873046875,0.02315521240234375
0.02330780029296875,0.00286102294921875
-0.00946044921875,0.00011444091796875
0.00202178955078125,-0.000762939453125
-0.00591278076171875,0.0048828125
-0.03002166748046875,-0.00347137451171875
-0.00637054443359375,0.00530242919921875
-0.0058746337890625,0.01323699951171875
-0.0104522705078125,-0.0006866455078125
0.00438690185546875,0.023345947265625
0.00457763671875,0.0115203857421875
-0.0173187255859375,-0.00457763671875
0.0179290771484375,-0.00698089599609375
0.01697540283203125,0.00377655029296875
0.00308990478515625,0.0
-0.0125885009765625,0.0037384033203125
0.01495361328125,0.03589630126953125
0.01338958740234375,0.00644683837890625
0.006561279296875,0.00579833984375
-0.0180816650390625,-0.005035400390625
0.0035858154296875,0.00148773193359375
0.05847930908203125,0.0032806396484375
0.0437164306640625,0.02277374267578125
-0.01476287841796875,0.00919342041015625
0.00812530517578125,-0.0054168701171875
-0.0170135498046875,0.00423431396484375
-0.04802703857421875,-0.00347137451171875
0.00331878662109375,0.0051116943359375
0.0051116943359375,-0.001220703125
-0.0199127197265625,0.00545501708984375
0.0109100341796875,-0.00606536865234375
-0.0084686279296875,-0.00476837158203125
0.04253387451171875,-0.01140594482421875
-0.00675201416015625,0.0274658203125
-0.01552581787109375,-0.00148773193359375
0.01003265380859375,-0.0023651123046875
-0.0099945068359375,0.01506805419921875
-0.00064849853515625,0.0048828125
-0.05115509033203125,-0.0244140625
0.03269195556640625,3.814697265625e-05
-0.00843048095703125,-0.0038909912109375
-0.03093719482421875,0.02777099609375
-0.001373291015625,0.00202178955078125
-0.00194549560546875,0.00614166259765625
-0.00308990478515625,-0.00041961669921875
-0.00698089599609375,-0.00186920166015625
0.001068115234375,-0.02849578857421875
0.00576019287109375,0.00194549560546875
-0.002899169921875,0.00133514404296875
-0.00789642333984375,0.0026702880859375
-0.03826141357421875,0.0
-0.0205230712890625,-0.00453948974609375
-0.0112152099609375,0.01117706298828125
-0.00316619873046875,-0.00286102294921875
0.0485992431640625,0.011749267578125
-0.0060272216796875,0.03116607666015625
0.02033233642578125,-0.02048492431640625
-0.0003814697265625,-0.00919342041015625
-0.03597259521484375,0.00904083251953125
0.0157928466796875,0.00080108642578125
-0.00675201416015625,0.0127410888671875
0.00030517578125,-0.00225067138671875
0.005035400390625,-0.0048828125
-0.00720977783203125,0.02593994140625
-0.00194549560546875,-0.00301361083984375
0.0070953369140625,-0.002899169921875
0.01560211181640625,0.0006866455078125
0.0093841552734375,0.00659942626953125
0.0400543212890625,-0.0009918212890625
-0.02307891845703125,0.00637054443359375
0.0032806396484375,0.00522613525390625
-0.01491546630859375,0.01102447509765625
0.01811981201171875,-0.01148223876953125
-0.00797271728515625,-0.001373291015625
-0.00049591064453125,0.00400543212890625
-0.00751495361328125,0.0006103515625
0.01911163330078125,0.00240325927734375
-0.00614166259765625,-0.02513885498046875
-0.003814697265625,-0.01453399658203125
-0.03002166748046875,-0.00560760498046875
0.00949859619140625,0.0118255615234375
0.0040435791015625,-0.0289154052734375
0.01010894775390625,-0.00431060791015625
0.01918792724609375,-0.00701904296875
-0.0009918212890625,-0.005035400390625
-0.01094818115234375,0.00782012939453125
-0.01983642578125,-0.00091552734375
-0.0154876708984375,0.0079345703125
0.0061798095703125,0.0022125244140625
0.00255584716796875,0.01689910888671875
0.00370025634765625,0.00110626220703125
0.02513885498046875,0.006866455078125
-0.00926971435546875,0.00377655029296875
-0.00335693359375,0.0095367431640625
0.0139617919921875,-0.00110626220703125
-0.0060272216796875,-0.01049041748046875
-0.01506805419921875,-0.000457763671875
0.00110626220703125,0.0180816650390625
-0.0058746337890625,0.00141143798828125
-0.00934600830078125,-0.00274658203125
-0.00057220458984375,-0.0066375732421875
0.00064849853515625,0.00392913818359375
-0.0086212158203125,0.01651763916015625
-0.00396728515625,0.00110626220703125
0.00766754150390625,0.0048828125
0.00179290771484375,0.0009918212890625
0.01495361328125,0.0096893310546875
0.009613037109375,-0.007781982421875
0.01148223876953125,-0.00576019287109375
0.0043487548828125,-0.00057220458984375
0.0017547607421875,0.0101470947265625
0.04547119140625,0.0045013427734375
-0.0028228759765625,0.0315093994140625
-0.00911712646484375,-0.00080108642578125
0.00270843505859375,-0.0257110595703125
-0.0307464599609375,0.01171112060546875
0.01495361328125,0.0067901611328125
-0.004119873046875,-0.00728607177734375
-0.00164031982421875,-0.00118255615234375
0.01628875732421875,0.010833740234375
0.01476287841796875,0.00873565673828125
-0.01194000244140625,0.00152587890625
0.0153350830078125,0.00095367431640625
-0.0189208984375,0.0128936767578125
0.01705169677734375,0.0095367431640625
0.00335693359375,0.00247955322265625
0.0348663330078125,0.01247406005859375
-0.00110626220703125,-0.00720977783203125
-0.01132965087890625,0.00141143798828125
0.00011444091796875,0.0035858154296875
0.00301361083984375,0.00225067138671875
-0.003204345703125,-0.024261474609375
-0.02849578857421875,0.01293182373046875
0.02838134765625,0.0060272216796875
0.0020599365234375,-0.0260162353515625
0.0078582763671875,0.00911712646484375
0.01262664794921875,-0.00347137451171875
-0.00057220458984375,0.02105712890625
0.0051116943359375,0.01010894775390625
0.01678466796875,-0.00579833984375
0.00286102294921875,0.00408172607421875
-0.0077056884765625,0.0022125244140625
0.0006866455078125,-0.00240325927734375
0.0150299072265625,0.00652313232421875
-0.0183868408203125,0.0011444091796875
-0.00919342041015625,0.0006103515625
-0.01003265380859375,0.017242431640625
0.00255584716796875,0.02872467041015625
0.009002685546875,0.00431060791015625
0.002288818359375,0.0211334228515625
-0.00949859619140625,-0.0040435791015625
-0.00408172607421875,-0.00133514404296875
-0.00072479248046875,0.00640869140625
-0.05268096923828125,0.00629425048828125
0.00518798828125,0.000457763671875
-0.00476837158203125,0.01186370849609375
-0.0054168701171875,-0.02529144287109375
0.00598907470703125,0.0122833251953125
0.00789642333984375,-0.00057220458984375
0.0038909912109375,-0.01186370849609375
-0.0135040283203125,0.0069427490234375
0.00301361083984375,-0.002593994140625
0.0217437744140625,0.00537872314453125
-0.00171661376953125,-0.00064849853515625
-0.00499725341796875,0.02285003662109375
0.01605987548828125,-0.01178741455078125
-0.011444091796875,0.02727508544921875
0.00026702880859375,-0.00667572021484375
-0.0012969970703125,0.0017547607421875
0.0238037109375,-0.00530242919921875
-0.00675201416015625,0.0052642822265625
0.01789093017578125,-3.814697265625e-05
0.00110626220703125,-0.00110626220703125
-0.012664794921875,-0.006103515625
0.01659393310546875,0.0028228759765625
0.0145721435546875,-0.003814697265625
-0.01850128173828125,0.0017547607421875
-0.0052642822265625,0.00499725341796875
-0.00186920166015625,0.00072479248046875
7.62939453125e-05,-0.00629425048828125
0.0066375732421875,-0.00064849853515625
-0.0063323974609375,0.00698089599609375
0.00385284423828125,-0.00335693359375
0.00598907470703125,-0.0032806396484375
0.02475738525390625,-0.01888275146484375
0.00308990478515625,0.0072479248046875
-0.00019073486328125,-0.0087738037109375
-0.00064849853515625,-0.00064849853515625
0.00057220458984375,0.00087738037109375
-0.00492095947265625,-0.00782012939453125
-0.01995086669921875,0.0185394287109375
-0.01323699951171875,0.015869140625
-0.009765625,0.0018310546875
0.013885498046875,-0.01087188720703125
-0.0254058837890625,-0.01407623291015625
0.00690460205078125,0.00682830810546875
0.00064849853515625,0.00263214111328125
0.01552581787109375,-0.00217437744140625
0.0072479248046875,0.00331878662109375
-0.007171630859375,0.0
-0.02330780029296875,0.01495361328125
0.03086090087890625,0.00995635986328125
0.00553131103515625,-0.00545501708984375
0.01468658447265625,-0.0138092041015625
-0.010223388671875,0.005645751953125
0.0051116943359375,0.0041961669921875
-0.01873016357421875,0.00278472900390625
-0.01255035400390625,-0.00064849853515625
-0.00102996826171875,0.00457763671875
0.00858306884765625,-0.0055694580078125
0.0060272216796875,0.0091552734375
-0.00347137451171875,-0.00614166259765625
-0.00164031982421875,0.00049591064453125
0.0213623046875,-0.00274658203125
-0.0196075439453125,0.01373291015625
-0.0031280517578125,0.00789642333984375
-0.01338958740234375,0.02819061279296875
-0.00186920166015625,-0.00034332275390625
0.00965118408203125,-0.0237274169921875
0.0040435791015625,-0.0060272216796875
0.005645751953125,0.0041961669921875
0.01140594482421875,-0.004119873046875
0.00682830810546875,-0.00270843505859375
-0.00743865966796875,0.00125885009765625
-0.0423431396484375,0.0099945068359375
-0.01590728759765625,0.00274658203125
0.00865936279296875,-0.00301361083984375
-0.0043487548828125,0.01148223876953125
-0.01361846923828125,-0.0051116943359375
0.00232696533203125,-0.00270843505859375
0.01201629638671875,-0.02201080322265625
-0.001373291015625,0.01049041748046875
0.002593994140625,-0.00690460205078125
0.00720977783203125,0.0014495849609375
-0.01064300537109375,-0.00492095947265625
-0.01255035400390625,-0.02338409423828125
-0.0002288818359375,0.00030517578125
0.00156402587890625,0.029144287109375
0.0072479248046875,-0.01758575439453125
-0.00102996826171875,-0.009613037109375
-0.01171112060546875,-0.00926971435546875
0.00396728515625,0.0041961669921875
0.0016021728515625,0.00194549560546875
0.00011444091796875,0.02277374267578125
0.00492095947265625,-0.0113677978515625
-0.00537872314453125,0.00255584716796875
-0.045166015625,0.0012969970703125
0.05535125732421875,0.0057220458984375
0.06092071533203125,0.00415802001953125
-0.01987457275390625,-3.814697265625e-05
-0.015106201171875,-0.00041961669921875
0.00347137451171875,-0.00213623046875
0.0016021728515625,-0.0032806396484375
0.02063751220703125,-0.00225067138671875
0.00415802001953125,0.02231597900390625
0.060882568359375,0.000152587890625
-0.0017547607421875,0.0052642822265625
-0.015411376953125,-0.00774383544921875
0.003814697265625,0.037384033203125
0.03673553466796875,0.016937255859375
0.01773834228515625,0.005035400390625
0.00637054443359375,0.02880096435546875
-0.00156402587890625,0.0011444091796875
-0.00820159912109375,-0.00827789306640625
0.0030517578125,0.0107574462890625
-0.00446319580078125,0.0002288818359375
-0.00423431396484375,-0.00164031982421875
-0.00263214111328125,-0.001678466796875
0.00759124755859375,0.0087738037109375
-0.00011444091796875,-0.00354766845703125
0.02471923828125,0.01621246337890625
0.00476837158203125,0.0110626220703125
0.00728607177734375,-0.0066375732421875
0.0061798095703125,-0.00629425048828125
0.00644683837890625,-0.0023651123046875
0.0040435791015625,0.01827239990234375
-0.01201629638671875,0.00858306884765625
-0.02071380615234375,0.0018310546875
0.0025177001953125,0.01071929931640625
0.001373291015625,0.0032806396484375
0.00179290771484375,0.004119873046875
0.0608062744140625,-0.02536773681640625
0.0002288818359375,0.0057220458984375
0.00576019287109375,-0.0008392333984375
0.00690460205078125,0.01373291015625
0.005340576171875,0.0045013427734375
0.0421142578125,-0.00179290771484375
0.00141143798828125,0.000762939453125
-0.00091552734375,-0.00362396240234375
-0.0383758544921875,-0.00514984130859375
0.03643035888671875,0.00064849853515625
0.015869140625,0.00690460205078125
0.00274658203125,0.0012969970703125
-0.00164031982421875,-0.000457763671875
-0.01003265380859375,0.022430419921875
0.04024505615234375,-0.01007080078125
0.00789642333984375,0.00263214111328125
0.01003265380859375,0.01499176025390625
0.00118255615234375,-0.01117706298828125
-0.03040313720703125,-0.009613037109375
-0.00995635986328125,0.00274658203125
-0.01354217529296875,0.01285552978515625
-0.0028228759765625,-0.00347137451171875
0.0054931640625,0.001983642578125
0.00057220458984375,0.00518798828125
0.0002288818359375,-0.00347137451171875
-0.02292633056640625,0.0063323974609375
0.0193023681640625,0.00362396240234375
-0.003204345703125,-0.00072479248046875
-0.00247955322265625,-0.001220703125
-0.01216888427734375,-0.00152587890625
-0.0193023681640625,-0.0017547607421875
0.0173187255859375,-0.0070953369140625
0.01064300537109375,-0.01483917236328125
-0.00209808349609375,-0.003662109375
-0.01220703125,0.017852783203125
-0.01251220703125,0.01285552978515625
0.00698089599609375,-0.00019073486328125
-0.0156402587890625,0.001068115234375
-0.00484466552734375,0.01171112060546875
-0.01201629638671875,0.00179290771484375
-0.00949859619140625,-0.0018310546875
-0.006561279296875,0.010986328125
0.021514892578125,0.0037384033203125
0.00156402587890625,-0.01331329345703125
-0.0022125244140625,-0.00244140625
0.00301361083984375,0.0213623046875
-0.0090789794921875,0.0232696533203125
-0.000152587890625,0.01659393310546875
0.00980377197265625,-0.02223968505859375
0.01583099365234375,0.01766204833984375
0.00606536865234375,-0.02162933349609375
0.00377655029296875,0.00278472900390625
0.00339508056640625,0.001373291015625
-0.00400543212890625,0.01438140869140625
0.0022125244140625,-0.00362396240234375
-0.00335693359375,0.00812530517578125
-0.0142669677734375,0.00179290771484375
0.01956939697265625,0.00377655029296875
0.00606536865234375,0.00453948974609375
0.04756927490234375,0.01506805419921875
-0.00888824462890625,0.01766204833984375
0.022125244140625,0.00553131103515625
0.0131988525390625,0.00087738037109375
-0.00225067138671875,-0.0080108642578125
0.02391815185546875,0.009307861328125
-0.007476806640625,0.00072479248046875
-0.010986328125,0.01056671142578125
0.014190673828125,-0.00446319580078125
0.00148773193359375,-0.0026702880859375
0.01644134521484375,0.00133514404296875
0.00438690185546875,0.003509521484375
0.00644683837890625,0.0008392333984375
0.00396728515625,-0.0156402587890625
-0.00209808349609375,-0.02582550048828125
0.00247955322265625,0.0107574462890625
0.00972747802734375,7.62939453125e-05
-0.0019073486328125,0.00522613525390625
-0.0081634521484375,-0.01983642578125
0.0083160400390625,-0.00202178955078125
0.0146484375,-0.00461578369140625
-0.00240325927734375,0.00881195068359375
0.04207611083984375,0.00396728515625
-0.01071929931640625,0.01239776611328125
0.056610107421875,-0.00247955322265625
-0.0017547607421875,-0.001220703125
0.0074005126953125,-0.00141143798828125
-0.02288818359375,0.0064849853515625
0.00415802001953125,-0.01399993896484375
0.000152587890625,0.002899169921875
-0.00675201416015625,-0.01865386962890625
0.00736236572265625,0.010986328125
0.0131988525390625,0.00362396240234375
0.011444091796875,0.0096893310546875
-0.0177764892578125,0.0008392333984375
0.0003814697265625,-0.00301361083984375
-0.00446319580078125,0.0052642822265625
0.012054443359375,0.0069427490234375
0.00919342041015625,0.0017547607421875
0.0075531005859375,-0.0019073486328125
-0.05218505859375,0.005340576171875
-0.0054168701171875,-0.00408172607421875
-0.0035858154296875,0.0034332275390625
-0.00362396240234375,-0.00736236572265625
-0.00152587890625,0.01827239990234375
-0.0049591064453125,-0.0165557861328125
-0.0054931640625,0.0032806396484375
0.00911712646484375,-0.00011444091796875
0.0403594970703125,0.0214385986328125
-0.00301361083984375,0.0061798095703125
-0.00789642333984375,0.0028228759765625
0.00278472900390625,0.0003814697265625
-0.00362396240234375,0.0074005126953125
0.00133514404296875,0.00263214111328125
0.002288818359375,-0.0011444091796875
-0.01468658447265625,-0.004119873046875
0.0030517578125,0.01850128173828125
0.01651763916015625,0.00637054443359375
-0.01216888427734375,0.00438690185546875
-0.01129150390625,-0.01110076904296875
-0.016326904296875,-0.00347137451171875
-0.00354766845703125,-0.02841949462890625
0.0080108642578125,0.0086212158203125
0.0048065185546875,0.0060272216796875
0.0188446044921875,0.0409698486328125
-0.01842498779296875,-0.00804901123046875
-0.00896453857421875,0.0093841552734375
0.00728607177734375,-0.00301361083984375
-0.0115203857421875,0.0122833251953125
0.00179290771484375,0.00308990478515625
0.01895904541015625,0.015106201171875
0.0045013427734375,0.02239227294921875
-0.0188446044921875,0.02452850341796875
0.018463134765625,-0.00019073486328125
0.010833740234375,0.00507354736328125
0.00217437744140625,-0.00232696533203125
-0.00972747802734375,-0.00240325927734375
-0.008392333984375,-0.003204345703125
-0.00011444091796875,0.00659942626953125
0.0092315673828125,-0.003814697265625
0.00064849853515625,0.00171661376953125
0.026702880859375,0.01102447509765625
-0.00335693359375,-0.003814697265625
-0.01308441162109375,0.00576019287109375
0.0110626220703125,-0.006256103515625
0.01934051513671875,0.00133514404296875
0.0225830078125,0.0368499755859375
0.0061798095703125,0.02094268798828125
0.0048065185546875,-0.008544921875
-0.00286102294921875,0.0070953369140625
0.01224517822265625,0.00888824462890625
0.00530242919921875,0.0060272216796875
0.00835418701171875,-0.0083160400390625
0.01392364501953125,0.00102996826171875
0.0109100341796875,7.62939453125e-05
0.0043487548828125,-0.01499176025390625
-0.00247955322265625,0.010528564453125
0.0170135498046875,-0.00057220458984375
0.009307861328125,-0.00011444091796875
-0.00179290771484375,-0.00637054443359375
0.0098419189453125,-0.00011444091796875
-0.01514434814453125,0.0043487548828125
0.00400543212890625,-0.00225067138671875
-0.0138092041015625,0.0063323974609375
0.01476287841796875,-0.00446319580078125
0.007171630859375,0.0054931640625
-0.0005340576171875,0.003662109375
-0.0135040283203125,0.00095367431640625
0.00244140625,-0.01415252685546875
-0.00202178955078125,-0.00392913818359375
-0.0034332275390625,0.01743316650390625
0.0119781494140625,0.02552032470703125
0.01415252685546875,0.00110626220703125
0.01033782958984375,0.0070953369140625
0.01628875732421875,0.00209808349609375
0.01102447509765625,-0.00438690185546875
-0.00457763671875,0.00675201416015625
0.004730224609375,0.00392913818359375
0.002899169921875,0.0067901611328125
0.0098419189453125,-0.0093841552734375
0.0609588623046875,0.0063323974609375
0.02498626708984375,-0.0030517578125
0.0002288818359375,-0.03009796142578125
-0.0183868408203125,0.01132965087890625
0.00949859619140625,-0.00335693359375
0.001220703125,0.03452301025390625
0.0006866455078125,-7.62939453125e-05
-0.00095367431640625,0.017242431640625
0.00080108642578125,0.01445770263671875
-0.015869140625,-0.001220703125
-0.00568389892578125,0.005035400390625
0.001220703125,0.01018524169921875
-0.0005340576171875,0.00698089599609375
0.0087738037109375,-0.00148773193359375
-0.021514892578125,-0.00011444091796875
0.00156402587890625,0.00041961669921875
0.03223419189453125,0.0183868408203125
0.00110626220703125,-0.00652313232421875
0.023040771484375,0.00446319580078125
0.04047393798828125,0.02044677734375
-0.01071929931640625,0.006103515625
-0.0115203857421875,-0.0067901611328125
0.0038909912109375,-0.0052642822265625
0.00331878662109375,0.00301361083984375
-0.01285552978515625,0.000457763671875
-0.04947662353515625,0.00091552734375
-0.00034332275390625,0.02681732177734375
0.0140380859375,-0.00148773193359375
-0.00865936279296875,0.01277923583984375
0.01003265380859375,-0.0078582763671875
0.0354766845703125,0.023956298828125
-0.0177764892578125,0.00591278076171875
0.0115203857421875,0.01766204833984375
-0.0057220458984375,-0.00141143798828125
0.0084686279296875,0.00019073486328125
-0.011138916015625,0.0112152099609375
0.01522064208984375,-0.0028228759765625
0.012969970703125,-0.00164031982421875
0.01171112060546875,0.0046539306640625
-0.001068115234375,0.00720977783203125
0.07778167724609375,0.02063751220703125
0.002593994140625,0.00274658203125
0.0372314453125,-0.012054443359375
0.034637451171875,0.0092315673828125
0.00362396240234375,0.00064849853515625
-0.005035400390625,0.01377105712890625
0.01117706298828125,0.016021728515625
-0.01743316650390625,0.00308990478515625
0.02040863037109375,-0.02285003662109375
0.000457763671875,0.0028228759765625
-0.01712799072265625,-0.003814697265625
0.0040435791015625,0.00476837158203125
0.01312255859375,-0.00797271728515625
-0.00720977783203125,0.01209259033203125
0.00209808349609375,0.00110626220703125
-0.01140594482421875,0.01010894775390625
0.01110076904296875,0.028839111328125
0.0030517578125,-0.000457763671875
-0.00133514404296875,0.00057220458984375
-0.0061798095703125,0.01407623291015625
0.0148773193359375,0.02246856689453125
-0.0016021728515625,-0.010528564453125
0.01293182373046875,-0.00766754150390625
-0.01316070556640625,-0.00179290771484375
-0.00522613525390625,-0.01804351806640625
-0.01697540283203125,0.01377105712890625
0.00049591064453125,0.002288818359375
-0.0003814697265625,0.00087738037109375
-0.00408172607421875,-0.006256103515625
0.00308990478515625,0.00141143798828125
0.01007080078125,0.000762939453125
0.0209808349609375,-0.0140380859375
-0.03582000732421875,-0.01003265380859375
-0.00072479248046875,0.00423431396484375
0.02559661865234375,0.01983642578125
0.03322601318359375,0.001678466796875
0.0019073486328125,0.01438140869140625
-0.01926422119140625,0.00019073486328125
0.0016021728515625,0.0035858154296875
-0.00133514404296875,-0.00762939453125
0.01880645751953125,0.01129150390625
0.01949310302734375,-0.00041961669921875
0.00431060791015625,0.01323699951171875
-0.0135040283203125,0.01064300537109375
0.0107574462890625,-0.05489349365234375
0.0135040283203125,-0.0093841552734375
0.001220703125,0.00823974609375
0.00919342041015625,0.00087738037109375
0.0103759765625,-0.02178192138671875
0.00335693359375,0.00629425048828125
-0.0022125244140625,-0.01312255859375
-0.01697540283203125,0.0014495849609375
-0.00431060791015625,-0.00087738037109375
0.009613037109375,-0.0037384033203125
0.0074005126953125,-0.00263214111328125
0.00400543212890625,0.0177001953125
-0.004730224609375,-0.0011444091796875
0.0092315673828125,0.0009918212890625
0.00751495361328125,0.0040435791015625
-0.00240325927734375,-0.00225067138671875
-0.0034332275390625,-0.00576019287109375
0.006256103515625,-0.0063323974609375
0.0035858154296875,0.019683837890625
-0.0048065185546875,-0.00579833984375
-0.00583648681640625,0.00606536865234375
0.00213623046875,-0.02628326416015625
-0.003509521484375,0.00518798828125
0.0077056884765625,0.002593994140625
-0.0080108642578125,0.02429962158203125
-0.00232696533203125,0.00827789306640625
0.00179290771484375,0.0009918212890625
-0.01758575439453125,0.00476837158203125
0.003814697265625,-0.00637054443359375
0.028228759765625,-0.0009918212890625
0.0153350830078125,-0.01285552978515625
0.01598358154296875,-0.0107574462890625
-0.00019073486328125,-0.00209808349609375
0.00537872314453125,0.00091552734375
0.00293731689453125,0.0052642822265625
0.00965118408203125,-0.01613616943359375
0.0,-0.00797271728515625
-0.02056121826171875,0.00034332275390625
0.00316619873046875,-0.01190185546875
-0.04070281982421875,0.02819061279296875
0.00995635986328125,-0.02635955810546875
-0.03185272216796875,0.0095367431640625
0.01003265380859375,-0.00385284423828125
-0.01194000244140625,0.0019073486328125
0.01499176025390625,0.0084686279296875
0.00499725341796875,-0.00484466552734375
0.00957489013671875,0.00553131103515625
0.0226593017578125,0.0167083740234375
0.05970001220703125,-0.00202178955078125
-0.00179290771484375,0.00507354736328125
-0.00637054443359375,-0.00396728515625
0.00179290771484375,0.00888824462890625
0.003204345703125,0.017242431640625
-0.00896453857421875,-0.01468658447265625
0.00591278076171875,-0.00217437744140625
0.0051116943359375,0.00640869140625
-0.00751495361328125,0.004425048828125
-0.01293182373046875,0.00335693359375
0.03940582275390625,-0.0145721435546875
0.015106201171875,-0.0063323974609375
0.0005340576171875,0.00331878662109375
0.0041961669921875,-0.01003265380859375
0.007781982421875,-0.00164031982421875
0.02155303955078125,-0.00164031982421875
-0.00762939453125,-0.0131988525390625
-0.04482269287109375,0.0026702880859375
-0.03231048583984375,0.00415802001953125
0.0249481201171875,-0.00125885009765625
-0.0389862060546875,-0.00530242919921875
0.0063323974609375,0.00240325927734375
-0.01285552978515625,0.012054443359375
0.00400543212890625,-0.01129150390625
0.0038909912109375,0.010833740234375
-0.02399444580078125,-0.00274658203125
-0.001983642578125,0.01312255859375
0.0003814697265625,-0.0026702880859375
-0.03650665283203125,0.00576019287109375
-0.0032806396484375,0.00041961669921875
-0.00240325927734375,0.0083160400390625
0.00804901123046875,-0.00782012939453125
0.0079345703125,0.0031280517578125
-0.00362396240234375,-0.003509521484375
0.02262115478515625,0.0040435791015625
0.000457763671875,-0.0008392333984375
0.0180816650390625,0.00164031982421875
-0.0018310546875,0.0098419189453125
-0.00041961669921875,0.0113677978515625
-0.01129150390625,0.01468658447265625
0.00545501708984375,0.01186370849609375
0.0026702880859375,-0.003509521484375
-0.01922607421875,-0.0038909912109375
0.0016021728515625,-0.003509521484375
-0.0055694580078125,0.006103515625
0.002899169921875,0.00324249267578125
0.04215240478515625,0.0081634521484375
0.00904083251953125,0.00339508056640625
-0.05664825439453125,-0.0048828125
-0.01201629638671875,0.00217437744140625
0.0064849853515625,0.0067901611328125
0.00713348388671875,0.00606536865234375
-0.00347137451171875,0.01556396484375
-0.00019073486328125,0.0003814697265625
0.0028228759765625,-0.00461578369140625
-0.01567840576171875,-0.0029754638671875
0.01338958740234375,-0.00774383544921875
-0.00446319580078125,0.03025054931640625
-0.0091552734375,0.00080108642578125
-0.01873016357421875,0.00171661376953125
0.00823974609375,-0.00553131103515625
0.03185272216796875,-0.01689910888671875
0.0133514404296875,0.00225067138671875
0.00934600830078125,0.0070953369140625
0.00545501708984375,-0.00202178955078125
-0.0386810302734375,-0.00152587890625
-0.02140045166015625,0.00072479248046875
0.0037384033203125,0.02300262451171875
0.00736236572265625,-0.00255584716796875
0.01796722412109375,0.00736236572265625
0.00415802001953125,-0.00499725341796875
0.00812530517578125,0.00514984130859375
0.0026702880859375,0.0006103515625
0.043182373046875,-0.00125885009765625
0.01026153564453125,0.00858306884765625
0.01644134521484375,-0.0128936767578125
0.00621795654296875,0.00705718994140625
0.05290985107421875,-0.01312255859375
-0.0020599365234375,-0.00606536865234375
0.01861572265625,-0.0077056884765625
-0.00011444091796875,0.02399444580078125
0.00270843505859375,0.014190673828125
0.00518798828125,-0.00274658203125
0.0022125244140625,0.00370025634765625
-0.01270294189453125,-0.00225067138671875
0.00560760498046875,0.00110626220703125
-0.01190185546875,0.006103515625
0.01056671142578125,-0.00396728515625
-0.002593994140625,-0.000762939453125
0.02574920654296875,-0.0043487548828125
-0.00431060791015625,0.0104522705078125
0.0070953369140625,-0.00102996826171875
-0.00946044921875,0.0019073486328125
0.0110626220703125,0.00019073486328125
-0.0006866455078125,0.00446319580078125
0.0022125244140625,-0.00102996826171875
0.02460479736328125,0.00225067138671875
0.00835418701171875,-0.01369476318359375
0.00705718994140625,-0.00820159912109375
-0.00019073486328125,-0.012969970703125
0.0028228759765625,0.00637054443359375
-0.00885009765625,-0.0251007080078125
0.00797271728515625,0.00030517578125
-0.00438690185546875,0.00202178955078125
0.00576019287109375,0.00576019287109375
-0.0162506103515625,0.01636505126953125
0.01102447509765625,0.02613067626953125
0.004119873046875,-0.0045013427734375
0.05435943603515625,0.01155853271484375
-0.00888824462890625,-0.00308990478515625
-0.0034332275390625,-0.002593994140625
0.0197601318359375,-0.0058746337890625
0.0116729736328125,0.0064849853515625
0.00026702880859375,0.00598907470703125
0.00621795654296875,-0.0109100341796875
0.00392913818359375,0.0078582763671875
0.001678466796875,0.007476806640625
-0.000152587890625,0.00415802001953125
-0.0154876708984375,-0.00530242919921875
0.00743865966796875,0.0083160400390625
-0.00263214111328125,-0.00392913818359375
0.00247955322265625,-0.00560760498046875
0.00072479248046875,0.02094268798828125
-0.0089263916015625,0.0133514404296875
-0.009918212890625,0.0118255615234375
-0.00244140625,0.000457763671875
-0.009765625,-0.0025177001953125
0.00141143798828125,-0.00217437744140625
-0.0025177001953125,0.00156402587890625
0.0057220458984375,0.003814697265625
-0.0121307373046875,-0.0145721435546875
0.001983642578125,-0.00225067138671875
0.029296875,0.01255035400390625
0.0038909912109375,-0.02285003662109375
0.004730224609375,0.00820159912109375
0.00080108642578125,-0.01850128173828125
-0.0505828857421875,0.01728057861328125
0.00354766845703125,0.00194549560546875
0.02246856689453125,0.00164031982421875
0.012969970703125,0.001068115234375
0.01155853271484375,0.0189208984375
0.005950927734375,-0.00141143798828125
0.01842498779296875,0.0363922119140625
-0.0118255615234375,0.00316619873046875
-0.00217437744140625,-0.0032806396484375
0.005950927734375,0.00255584716796875
0.0110626220703125,-0.00080108642578125
-0.004730224609375,0.01445770263671875
-0.001983642578125,-0.00812530517578125
-0.036163330078125,0.0019073486328125
0.00240325927734375,0.0246429443359375
0.00278472900390625,0.0079345703125
0.01415252685546875,0.00675201416015625
0.03627777099609375,0.001220703125
0.01373291015625,-0.02132415771484375
0.025177001953125,0.00606536865234375
0.0063323974609375,0.00804901123046875
0.0011444091796875,0.04512786865234375
0.0554656982421875,-0.00274658203125
0.00804901123046875,-0.0009918212890625
-0.0138092041015625,-0.00911712646484375
0.0006866455078125,0.003814697265625
0.00026702880859375,0.00057220458984375
-0.0283050537109375,0.0099945068359375
0.00247955322265625,-0.0162506103515625
-0.0055694580078125,-0.00152587890625
-0.00774383544921875,0.0049591064453125
-0.02666473388671875,-0.0008392333984375
-0.0102996826171875,0.0043487548828125
-0.00469207763671875,-0.0029754638671875
-0.02269744873046875,0.0022125244140625
0.02227783203125,0.00553131103515625
-0.0186920166015625,-0.01434326171875
0.0142669677734375,-0.00064849853515625
0.02197265625,-0.00301361083984375
0.00244140625,-0.00091552734375
-0.01247406005859375,0.00308990478515625
0.0048065185546875,-0.01483917236328125
-0.00492095947265625,0.01766204833984375
0.01689910888671875,0.0031280517578125
0.0006866455078125,0.00461578369140625
-0.01239776611328125,-0.001373291015625
0.0048065185546875,-0.00789642333984375
0.0218963623046875,0.00453948974609375
-0.01041412353515625,0.01010894775390625
-0.00286102294921875,0.00331878662109375
-0.008697509765625,0.00885009765625
-0.0048065185546875,-0.00644683837890625
0.009307861328125,-0.03086090087890625
0.0020599365234375,-0.00621795654296875
0.0103759765625,-0.01007080078125
0.02735137939453125,-0.01499176025390625
0.00110626220703125,-0.02407073974609375
-0.01674652099609375,-0.00698089599609375
0.016021728515625,0.0040435791015625
-0.0046539306640625,-3.814697265625e-05
0.00720977783203125,0.00392913818359375
-0.0037384033203125,-0.00995635986328125
0.00011444091796875,-0.00518798828125
-0.0072479248046875,0.0109100341796875
0.00591278076171875,-0.00579833984375
0.00652313232421875,0.01201629638671875
-0.01026153564453125,-0.00057220458984375
-0.01644134521484375,-0.0031280517578125
0.0136566162109375,-0.00072479248046875
-0.0140380859375,-0.01964569091796875
0.00720977783203125,-0.00530242919921875
-0.00591278076171875,-0.00652313232421875
0.0130462646484375,0.01018524169921875
0.009918212890625,0.0086212158203125
0.01323699951171875,0.008392333984375
0.00324249267578125,0.0122833251953125
0.01018524169921875,-0.00476837158203125
-0.01865386962890625,0.00057220458984375
-3.814697265625e-05,0.00232696533203125
0.023345947265625,0.00091552734375
0.0482177734375,0.00286102294921875
-0.0040435791015625,0.02185821533203125
0.000762939453125,-0.0030517578125
0.007171630859375,0.0133514404296875
0.000762939453125,0.01377105712890625
-0.02193450927734375,0.01117706298828125
0.0254058837890625,0.007171630859375
0.00057220458984375,0.017852783203125
0.0211334228515625,0.00125885009765625
0.00518798828125,-0.00270843505859375
0.01361846923828125,-7.62939453125e-05
0.00286102294921875,0.01354217529296875
0.0005340576171875,-0.00324249267578125
0.00362396240234375,-0.00156402587890625
-0.021514892578125,-0.00530242919921875
0.00942230224609375,0.00885009765625
0.00873565673828125,0.02193450927734375
0.02269744873046875,0.00377655029296875
-0.00301361083984375,-0.00701904296875
-0.00888824462890625,-0.00431060791015625
0.02040863037109375,-0.004425048828125
0.00091552734375,0.0035858154296875
-0.003814697265625,0.00743865966796875
0.0079345703125,0.02532958984375
0.0034332275390625,0.0034332275390625
0.0222015380859375,-0.011138916015625
0.002288818359375,0.00415802001953125
0.0223541259765625,-0.00118255615234375
-0.01293182373046875,0.01361846923828125
-0.00244140625,0.0031280517578125
0.003662109375,0.01613616943359375
0.0098419189453125,-0.0019073486328125
0.00301361083984375,0.00637054443359375
0.032958984375,0.01399993896484375
-0.0060272216796875,-0.00293731689453125
-0.00064849853515625,-0.00080108642578125
-0.01041412353515625,-0.0034332275390625
-0.01468658447265625,0.00255584716796875
0.02735137939453125,0.00911712646484375
0.00812530517578125,-0.0049591064453125
0.0214385986328125,0.0008392333984375
-0.00385284423828125,-0.00080108642578125
0.01026153564453125,0.0067901611328125
-0.00087738037109375,-0.00152587890625
0.0351715087890625,-0.0019073486328125
0.0018310546875,-0.0002288818359375
-0.009307861328125,0.02773284912109375
-0.00202178955078125,-0.00171661376953125
0.01766204833984375,-0.0022125244140625
0.063934326171875,-0.00019073486328125
-0.00286102294921875,0.0022125244140625
-0.0115203857421875,0.00118255615234375
-0.00217437744140625,-0.00091552734375
0.03681182861328125,-0.013427734375
0.00453948974609375,0.0174713134765625
-0.02017974853515625,0.01071929931640625
0.0092315673828125,0.0116729736328125
0.00118255615234375,0.02155303955078125
0.00675201416015625,-0.01941680908203125
0.00400543212890625,-0.0014495849609375
-0.0075531005859375,-0.02285003662109375
-0.00675201416015625,0.00751495361328125
0.0621795654296875,0.02468109130859375
0.00499725341796875,0.00797271728515625
-0.0057220458984375,0.01293182373046875
0.0156402587890625,0.012054443359375
0.002899169921875,-0.0005340576171875
-0.024261474609375,0.00240325927734375
-0.0016021728515625,-0.001678466796875
0.0185394287109375,-0.00194549560546875
0.03154754638671875,0.0267791748046875
0.01678466796875,-0.00049591064453125
-0.0030517578125,0.0284576416015625
-0.00030517578125,-0.01949310302734375
0.0139617919921875,-0.02590179443359375
0.01651763916015625,0.00827789306640625
0.01056671142578125,-3.814697265625e-05
0.01071929931640625,0.0012969970703125
-0.00946044921875,-0.00579833984375
0.006561279296875,-0.00339508056640625
-0.0171661376953125,0.012664794921875
0.01056671142578125,-0.00011444091796875
0.0009918212890625,0.00244140625
-0.03509521484375,0.00347137451171875
-0.0116729736328125,0.01186370849609375
0.00743865966796875,-0.00026702880859375
0.005950927734375,-0.01934051513671875
0.00774383544921875,-7.62939453125e-05
-0.01102447509765625,-3.814697265625e-05
0.0026702880859375,-0.01972198486328125
-0.02140045166015625,0.00614166259765625
0.01659393310546875,0.00209808349609375
0.0011444091796875,0.0148773193359375
-0.01079559326171875,-0.00518798828125
-0.0040435791015625,0.00637054443359375
0.00476837158203125,-0.00469207763671875
-0.01506805419921875,0.018310546875
0.01651763916015625,-0.0046539306640625
0.00057220458984375,-0.0128173828125
0.0011444091796875,0.0028228759765625
-0.008697509765625,0.0146484375
-0.01766204833984375,0.0107574462890625
0.03528594970703125,0.00087738037109375
-0.00980377197265625,0.00133514404296875
0.01739501953125,-0.0080108642578125
0.00064849853515625,0.00171661376953125
-0.00652313232421875,0.00225067138671875
-0.0012969970703125,0.0016021728515625
0.00514984130859375,0.01041412353515625
-0.0054931640625,-0.00400543212890625
0.0040435791015625,-0.0012969970703125
-0.0115966796875,-0.00598907470703125
0.01232147216796875,0.00736236572265625
0.006866455078125,-0.022430419921875
0.01033782958984375,0.007781982421875
0.01800537109375,-0.00640869140625
0.01377105712890625,0.00537872314453125
-0.00995635986328125,0.00339508056640625
-0.021514892578125,0.01384735107421875
-0.003204345703125,0.0025177001953125
-0.0041961669921875,-0.00133514404296875
-0.03387451171875,0.00396728515625
0.02941131591796875,0.00911712646484375
0.00659942626953125,-0.0018310546875
-0.00247955322265625,0.00415802001953125
0.00049591064453125,0.00087738037109375
-0.0019073486328125,-0.0079345703125
-0.00728607177734375,0.00034332275390625
0.0055694580078125,0.00774383544921875
0.0037384033203125,-0.0016021728515625
0.02742767333984375,0.01018524169921875
-0.01983642578125,-0.004425048828125
0.00041961669921875,-0.00896453857421875
0.0018310546875,-0.0008392333984375
0.02826690673828125,0.01598358154296875
-0.00457763671875,0.0067138671875
0.00217437744140625,7.62939453125e-05
-0.01277923583984375,0.00270843505859375
0.032501220703125,0.01560211181640625
0.00499725341796875,0.00934600830078125
0.0031280517578125,0.0038909912109375
-0.0079345703125,0.0048065185546875
0.0051116943359375,-0.01247406005859375
-0.00530242919921875,-0.00400543212890625
-0.0141143798828125,-0.0083160400390625
0.0006103515625,0.0197601318359375
-0.00537872314453125,-0.02315521240234375
0.00274658203125,0.00194549560546875
-0.0048065185546875,-0.00431060791015625
0.00789642333984375,0.01689910888671875
0.00209808349609375,-0.006103515625
-0.0046539306640625,0.0011444091796875
0.0049591064453125,-0.00152587890625
-0.01148223876953125,-0.0002288818359375
0.00873565673828125,-0.001068115234375
0.0006866455078125,0.01918792724609375
-0.00438690185546875,-0.00118255615234375
-0.01338958740234375,0.01880645751953125
-0.000762939453125,-0.00011444091796875
0.000152587890625,-0.0090789794921875
-0.00545501708984375,-0.00030517578125
0.013580322265625,0.002593994140625
-0.0043487548828125,-0.0031280517578125
-0.00698089599609375,0.00255584716796875
-0.01972198486328125,-0.01575469970703125
-0.01392364501953125,0.00965118408203125
0.00812530517578125,0.0128936767578125
0.003509521484375,-0.00484466552734375
0.04253387451171875,0.00293731689453125
-0.0046539306640625,-0.04123687744140625
-0.00217437744140625,-0.00751495361328125
0.02628326416015625,-0.001373291015625
0.01354217529296875,0.00759124755859375
0.00865936279296875,0.006103515625
0.0229644775390625,0.01331329345703125
0.007781982421875,-0.00698089599609375
0.00247955322265625,0.00392913818359375
-0.0026702880859375,0.012969970703125
0.006256103515625,0.014190673828125
0.003662109375,0.00537872314453125
0.0167083740234375,-0.00072479248046875
-0.00942230224609375,0.0018310546875
-0.0244903564453125,0.02109527587890625
0.0041961669921875,-0.00675201416015625
0.00835418701171875,0.01407623291015625
-0.0020599365234375,-0.00446319580078125
-0.0186920166015625,-0.0014495849609375
0.00690460205078125,0.0020599365234375
0.01583099365234375,0.00530242919921875
0.0321197509765625,-0.0164794921875
0.00545501708984375,0.00583648681640625
-0.0318145751953125,0.016021728515625
-0.0133514404296875,0.002288818359375
0.00110626220703125,-0.00148773193359375
0.01316070556640625,0.00400543212890625
-0.00713348388671875,0.01251220703125
-0.00286102294921875,0.00396728515625
-0.0017547607421875,0.01781463623046875
0.0077056884765625,-0.03932952880859375
0.003509521484375,0.01621246337890625
-0.001678466796875,0.0052642822265625
-0.017547607421875,0.00209808349609375
-0.00591278076171875,-0.02956390380859375
-0.0037384033203125,-0.00148773193359375
0.0183868408203125,0.0006866455078125
0.0063323974609375,0.024566650390625
0.001373291015625,-0.002593994140625
7.62939453125e-05,0.00431060791015625
-0.0118255615234375,0.000457763671875
0.00850677490234375,0.01373291015625
0.005340576171875,0.011444091796875
0.002899169921875,-0.0083160400390625
-0.0091552734375,-0.00514984130859375
-0.00396728515625,-0.0066375732421875
-0.02960205078125,0.00530242919921875
-0.0057220458984375,-0.0012969970703125
-0.01651763916015625,0.01026153564453125
-0.00408172607421875,0.00064849853515625
-0.00400543212890625,0.00988006591796875
-0.02574920654296875,-0.00141143798828125
-0.00324249267578125,0.00362396240234375
0.0408935546875,-0.004119873046875
-0.00270843505859375,0.012969970703125
-0.00034332275390625,-0.00164031982421875
0.00614166259765625,-0.01117706298828125
-0.00011444091796875,0.0034332275390625
-0.0203704833984375,0.02582550048828125
0.0061798095703125,-0.00518798828125
0.00354766845703125,0.00213623046875
0.02025604248046875,-0.01251220703125
0.0016021728515625,0.00598907470703125
0.0254058837890625,-0.01941680908203125
0.004730224609375,0.01537322998046875
0.00316619873046875,0.02033233642578125
-0.00095367431640625,0.00614166259765625
-0.019378662109375,-0.00804901123046875
0.00820159912109375,0.0109100341796875
-0.00019073486328125,0.00759124755859375
0.0103759765625,-0.006561279296875
-0.00904083251953125,0.03269195556640625
-0.0188446044921875,-0.00652313232421875
-0.00881195068359375,0.0002288818359375
-0.00774383544921875,0.01415252685546875
0.00720977783203125,0.00362396240234375
0.01026153564453125,-0.00225067138671875
-0.00141143798828125,0.006256103515625
-0.05031585693359375,0.01354217529296875
-0.0035858154296875,0.0017547607421875
0.01430511474609375,0.00492095947265625
-0.01819610595703125,-0.01232147216796875
-0.00701904296875,0.00370025634765625
0.0003814697265625,-0.0026702880859375
0.01461029052734375,0.0035858154296875
-0.01689910888671875,-0.00049591064453125
-0.01766204833984375,-0.00041961669921875
-0.02597808837890625,-0.00240325927734375
-0.02445220947265625,0.00263214111328125
0.0017547607421875,0.00087738037109375
0.02147674560546875,0.003509521484375
0.02490997314453125,-0.00667572021484375
0.00274658203125,0.00743865966796875
0.00133514404296875,0.0122833251953125
-0.03803253173828125,0.00110626220703125
0.00110626220703125,0.0030517578125
0.035247802734375,0.00614166259765625
-0.00087738037109375,0.00690460205078125
0.0051116943359375,-0.011444091796875
-0.00102996826171875,-0.000457763671875
0.01491546630859375,-0.0170135498046875
0.0292205810546875,0.01129150390625
0.0363922119140625,0.0026702880859375
-0.00213623046875,0.0226593017578125
0.0130462646484375,-0.00545501708984375
0.01087188720703125,-0.0226593017578125
0.02750396728515625,-0.00091552734375
-0.01346588134765625,0.003509521484375
0.00171661376953125,-0.0038909912109375
0.01194000244140625,0.0061798095703125
0.00568389892578125,0.00507354736328125
-0.00370025634765625,0.01934051513671875
0.00385284423828125,0.01537322998046875
-0.01766204833984375,0.0127410888671875
0.02468109130859375,-0.00873565673828125
0.0093841552734375,0.00030517578125
0.0188446044921875,0.0035858154296875
0.024871826171875,-0.02910614013671875
0.0011444091796875,0.0205230712890625
0.00553131103515625,-0.00370025634765625
-0.0156402587890625,0.0043487548828125
0.009613037109375,-7.62939453125e-05
0.001068115234375,-0.00080108642578125
0.01094818115234375,-0.00293731689453125
-0.0481414794921875,0.0079345703125
0.01705169677734375,-0.0202178955078125
-0.0025177001953125,-0.0067138671875
-0.03795623779296875,-0.00637054443359375
0.0179290771484375,0.007781982421875
-0.0014495849609375,-0.0031280517578125
0.0057220458984375,0.00789642333984375
-0.0032806396484375,-0.00667572021484375
0.01132965087890625,-0.0016021728515625
-0.03509521484375,-0.0084686279296875
0.01071929931640625,0.0064849853515625
0.00087738037109375,0.001220703125
-0.0164794921875,0.002288818359375
-0.0215911865234375,-0.00263214111328125
-0.02071380615234375,0.01659393310546875
-0.0052642822265625,-0.016937255859375
0.04589080810546875,0.0006866455078125
0.00640869140625,0.01422882080078125
0.0174713134765625,0.00362396240234375
-0.01514434814453125,0.00194549560546875
-0.0045013427734375,-0.0034332275390625
-0.00186920166015625,0.00732421875
0.0067901611328125,0.004119873046875
-0.02506256103515625,0.0164031982421875
-0.00156402587890625,-0.00576019287109375
0.0034332275390625,-0.0106048583984375
0.00030517578125,-0.00240325927734375
0.005645751953125,0.0055694580078125
0.00293731689453125,-0.00152587890625
-0.0081634521484375,-0.00011444091796875
-0.00705718994140625,0.00057220458984375
-0.005645751953125,0.006103515625
-0.0078582763671875,0.00362396240234375
0.02288818359375,0.0046539306640625
0.00499725341796875,-0.0214385986328125
-0.01987457275390625,0.0115203857421875
-0.0196075439453125,-0.00171661376953125
-0.0055694580078125,-0.000152587890625
0.0125885009765625,0.0121307373046875
0.0078582763671875,-0.00041961669921875
-0.00453948974609375,-0.00408172607421875
0.02498626708984375,-0.009765625
-0.0019073486328125,-0.01293182373046875
-0.0141143798828125,-0.00732421875
0.00049591064453125,0.02208709716796875
0.0208282470703125,-0.0078582763671875
0.02056121826171875,0.0023651123046875
0.0154876708984375,0.00698089599609375
-0.03154754638671875,0.0093841552734375
-0.02002716064453125,0.00606536865234375
0.01972198486328125,-0.01125335693359375
-0.00171661376953125,0.0058746337890625
0.02834320068359375,-0.00213623046875
-0.02994537353515625,0.00152587890625
-0.02254486083984375,0.01953125
0.0026702880859375,0.00072479248046875
0.00881195068359375,0.00209808349609375
-0.0041961669921875,-0.01430511474609375
-0.03978729248046875,-0.0077056884765625
-0.01636505126953125,0.0058746337890625
0.01277923583984375,-0.00751495361328125
-0.048980712890625,-0.00072479248046875
-0.00392913818359375,-0.0030517578125
-0.005950927734375,0.00293731689453125
0.0020599365234375,-0.00354766845703125
-0.01026153564453125,0.009613037109375
0.00415802001953125,0.0046539306640625
-0.04459381103515625,0.0081634521484375
0.01232147216796875,-0.0103759765625
0.00438690185546875,0.00270843505859375
-0.0102996826171875,0.00125885009765625
-0.0136566162109375,0.000762939453125
-3.814697265625e-05,-0.03353118896484375
-0.00904083251953125,0.00873565673828125
0.00621795654296875,-0.016326904296875
-0.00186920166015625,0.000152587890625
-0.03963470458984375,0.00885009765625
0.0152587890625,0.00133514404296875
0.00736236572265625,0.005950927734375
-0.00308990478515625,0.00293731689453125
-0.01941680908203125,0.00057220458984375
0.00209808349609375,0.00293731689453125
-0.00614166259765625,-0.0127410888671875
0.0121307373046875,0.0028228759765625
0.001983642578125,0.00179290771484375
0.0160980224609375,-0.01194000244140625
-0.01514434814453125,0.00972747802734375
-0.006866455078125,-0.02593994140625
0.00652313232421875,0.01705169677734375
-0.0110626220703125,0.00232696533203125
0.0325775146484375,0.00568389892578125
0.00331878662109375,0.0020599365234375
-0.0018310546875,-0.00255584716796875
-0.0179290771484375,-0.01773834228515625
0.00179290771484375,-0.0040435791015625
0.03711700439453125,0.0118255615234375
-0.00865936279296875,-0.00125885009765625
0.01148223876953125,-0.00698089599609375
0.00171661376953125,0.00949859619140625
-0.02109527587890625,-0.007781982421875
-0.00583648681640625,0.0214385986328125
-0.01483917236328125,0.00705718994140625
0.0366973876953125,0.00431060791015625
-0.0064849853515625,0.00682830810546875
0.02307891845703125,0.0020599365234375
0.01373291015625,0.009765625
0.02346038818359375,-0.00030517578125
0.0067901611328125,0.001220703125
0.02460479736328125,-0.0202178955078125
-0.00324249267578125,0.0083160400390625
-0.02841949462890625,0.003204345703125
0.00644683837890625,0.0152587890625
0.00392913818359375,-0.001220703125
0.005950927734375,0.0183868408203125
0.00713348388671875,0.02330780029296875
0.00736236572265625,-0.003204345703125
-0.01068115234375,-0.0061798095703125
0.01506805419921875,0.0055694580078125
-0.01529693603515625,0.0052642822265625
0.01819610595703125,-0.0038909912109375
-0.010528564453125,0.0032806396484375
-0.0067138671875,-0.00759124755859375
-0.00164031982421875,-0.00408172607421875
0.01468658447265625,0.00331878662109375
-0.0226593017578125,0.01010894775390625
0.001068115234375,-0.0030517578125
0.00202178955078125,-0.0063323974609375
0.00926971435546875,0.00110626220703125
0.0099945068359375,0.00812530517578125
0.0063323974609375,-0.00377655029296875
-0.00225067138671875,-0.00194549560546875
-0.02597808837890625,-0.01697540283203125
0.00804901123046875,-0.0023651123046875
-0.00988006591796875,0.0079345703125
-0.00171661376953125,0.0043487548828125
-0.00141143798828125,0.00011444091796875
0.01087188720703125,0.007781982421875
-0.01491546630859375,-0.008697509765625
0.00186920166015625,0.00652313232421875
0.0037384033203125,0.01007080078125
0.0077056884765625,0.02101898193359375
0.0026702880859375,-0.023651123046875
0.00209808349609375,0.020599365234375
0.01789093017578125,-0.004425048828125
0.0254058837890625,0.0089263916015625
0.02254486083984375,0.00911712646484375
-0.02727508544921875,0.0005340576171875
-0.01922607421875,-0.00522613525390625
0.01438140869140625,-0.00621795654296875
0.0109100341796875,0.0019073486328125
0.01743316650390625,0.00087738037109375
-0.00911712646484375,0.00858306884765625
-0.0274658203125,-0.01201629638671875
-0.01087188720703125,-0.0109100341796875
0.00408172607421875,0.01056671142578125
-0.00392913818359375,-0.0003814697265625
0.00286102294921875,0.0040435791015625
-0.0284576416015625,0.0008392333984375
-0.02109527587890625,0.00396728515625
-0.02162933349609375,-0.00934600830078125
0.05863189697265625,-0.011444091796875
0.044708251953125,-0.00141143798828125
0.0017547607421875,0.005035400390625
-0.00812530517578125,-0.01708984375
-0.011749267578125,0.0008392333984375
-0.0045013427734375,0.01323699951171875
-0.02956390380859375,0.0077056884765625
0.03345489501953125,0.0140380859375
-0.00720977783203125,-0.0091552734375
0.003662109375,-0.00667572021484375
0.001220703125,0.0025177001953125
0.00598907470703125,0.00080108642578125
-0.0051116943359375,0.00301361083984375
0.0323486328125,0.0054931640625
-0.00072479248046875,0.00026702880859375
-0.007171630859375,-0.00629425048828125
-0.00308990478515625,0.00583648681640625
0.00942230224609375,0.00091552734375
0.01224517822265625,-0.021820068359375
0.06587982177734375,0.004119873046875
0.00213623046875,-0.0019073486328125
0.00904083251953125,0.00152587890625
-0.0359344482421875,-0.0057220458984375
0.0330352783203125,0.0156402587890625
0.01079559326171875,0.00202178955078125
-0.00598907470703125,-0.0107574462890625
0.034332275390625,0.0003814697265625
0.003662109375,-0.00244140625
-0.000762939453125,0.01178741455078125
0.03570556640625,0.00461578369140625
0.01224517822265625,-0.00240325927734375
-0.03017425537109375,-0.00843048095703125
-0.0045013427734375,-0.00244140625
0.01613616943359375,0.00019073486328125
-0.00637054443359375,0.0058746337890625
0.0009918212890625,-0.00827789306640625
-0.00446319580078125,0.001068115234375
-0.02635955810546875,-0.00286102294921875
-0.01110076904296875,0.001678466796875
-0.008697509765625,0.00476837158203125
0.01506805419921875,0.0072479248046875
-0.0006103515625,0.00244140625
0.00659942626953125,0.00011444091796875
-0.02483367919921875,0.0009918212890625
0.0026702880859375,-0.0025177001953125
0.00766754150390625,0.00732421875
0.00591278076171875,0.01522064208984375
-0.01129150390625,0.0041961669921875
-0.0063323974609375,-0.00255584716796875
0.01575469970703125,0.02231597900390625
-0.00644683837890625,-0.0037384033203125
0.008544921875,0.00225067138671875
-0.00904083251953125,-0.01010894775390625
0.06175994873046875,0.00423431396484375
-0.0098419189453125,0.01068115234375
-0.001068115234375,0.01255035400390625
-0.01056671142578125,-0.00213623046875
0.0086212158203125,0.00324249267578125
-0.019683837890625,-0.00331878662109375
0.00011444091796875,0.00110626220703125
0.01811981201171875,0.00049591064453125
0.0127410888671875,0.006103515625
0.00102996826171875,-0.00133514404296875
-0.00400543212890625,0.02750396728515625
0.01804351806640625,-0.00331878662109375
0.0458526611328125,0.02105712890625
0.0069427490234375,0.005340576171875
0.0038909912109375,0.00453948974609375
-7.62939453125e-05,-0.00942230224609375
-0.00087738037109375,0.00030517578125
0.02216339111328125,-0.00415802001953125
-0.00213623046875,0.0067138671875
0.01041412353515625,-0.0009918212890625
-0.00530242919921875,-0.00213623046875
-0.01674652099609375,-0.00247955322265625
-0.00072479248046875,-0.00186920166015625
-0.0012969970703125,0.0244140625
0.00904083251953125,-0.013580322265625
-0.0023651123046875,0.011444091796875
0.0009918212890625,-0.00957489013671875
-0.02506256103515625,-0.0145721435546875
-0.00492095947265625,0.00034332275390625
-0.0402069091796875,0.00019073486328125
-0.00579833984375,-0.00019073486328125
0.00820159912109375,0.00286102294921875
-0.00667572021484375,0.00072479248046875
-0.01155853271484375,0.00885009765625
-0.00026702880859375,-0.0042724609375
0.0298309326171875,0.00469207763671875
0.0026702880859375,-0.01354217529296875
-0.02796173095703125,0.005950927734375
0.0278472900390625,0.01544952392578125
0.026092529296875,0.01308441162109375
0.00621795654296875,0.0006866455078125
-0.0279998779296875,0.009002685546875
0.01739501953125,-0.0119781494140625
-0.00812530517578125,-0.00335693359375
-0.00568389892578125,0.0002288818359375
0.00125885009765625,0.00965118408203125
-0.00347137451171875,-0.00579833984375
-0.03925323486328125,-0.0150299072265625
-0.00431060791015625,-0.007171630859375
0.00255584716796875,0.01155853271484375
0.00324249267578125,0.00942230224609375
-0.02857208251953125,0.0217437744140625
0.00484466552734375,-0.01224517822265625
-0.0096893310546875,-0.00530242919921875
0.0174713134765625,0.001983642578125
-0.0005340576171875,0.0066375732421875
0.0164794921875,-0.00537872314453125
0.00720977783203125,0.020751953125
0.00278472900390625,7.62939453125e-05
0.0043487548828125,-0.001678466796875
-0.03444671630859375,0.03673553466796875
-0.00514984130859375,-0.0360107421875
-0.0109100341796875,0.00885009765625
0.00339508056640625,0.0022125244140625
-0.016021728515625,0.0009918212890625
-0.0028228759765625,-0.011138916015625
0.00537872314453125,-0.00194549560546875
0.0168609619140625,0.00095367431640625
-0.00690460205078125,0.0287628173828125
0.01049041748046875,-0.0078582763671875
-0.00308990478515625,0.0031280517578125
-0.01003265380859375,-0.00339508056640625
0.00209808349609375,0.0037384033203125
