time,RGLTMED,RRF,RADDLONG,RST,RTA,RGM,LGLTMED,LRF,LADDLONG,LST,LTA,LGM
0.0,0.0014556496492919824,0.015611244664241452,0.016839681713825928,0.0006976221419444234,0.0006544905115115543,0.002930234399372878,0.0003807743382740933,0.0011681012077437464,0.0015059829492224787,0.011817672519886484,0.007667196198192038,0.00100995335886391
0.001,0.0016745418373714056,0.016718366178147856,0.01577129234766236,0.0006283182141764605,0.0005316610161337173,0.0030401379710150865,0.00042557245877154943,0.0010297275248647914,0.0013654041882256863,0.011210493168448452,0.00813282045097385,0.00135198945571526
0.002,0.0018939461334909328,0.0178195553331883,0.014712088935418857,0.000559053339628944,0.0004087096726603126,0.0031501040345523427,0.00047012410978933364,0.0008923975476546868,0.001225611006317757,0.010604313315781643,0.008602923042288742,0.00169323940978913
0.003,0.0021137149612048918,0.018913961003659708,0.013662694927792443,0.0004898358370489181,0.0002857035510577075,0.0032600622957905515,0.0005143949449793019,0.0007562026191331441,0.0010866894577124134,0.009999365828966971,0.009077241107119632,0.002033483505947216
0.004,0.0023336996786817795,0.020000738281894023,0.012623720758385257,0.00042067230315442433,0.00016270911515283714,0.003369942864462024,0.0005583508073216876,0.0006212329067019203,0.000948724368771573,0.009395878816673465,0.009555506674703349,0.0023725025764899156
0.005,0.002553750778856225,0.02107904992148537,0.011595762990907038,0.0003515675535149204,3.97920959537469e-05,0.0034796763995477865,0.0006019577841697873,0.0004875772738586725,0.0008117992076325456,0.008794075378098367,0.01003744705112008,0.0027100783037336887
0.006,0.0027737180902606792,0.02214806776883985,0.01057940349684193,0.0002825245665655352,8.298263054981653e-05,0.003589194255006077,0.0006451822622813785,0.00035532315437984934,0.0006759959571630414,0.008194173368950808,0.010522785206763648,0.003045993522385443
0.007,0.0029934509779559644,0.023206974178204703,0.009575208665573398,0.00021354443097747932,0.0002055511604205309,0.0036984286254592574,0.0006879909827055492,0.00022455642927994172,0.0005413949916641148,0.007596385185081012,0.011011240167239058,0.003380032521118432
0.008,0.0032127985439945636,0.024254963405427515,0.00858372864883064,0.00014462629659850882,0.0003278506731774687,0.003807312691394244,0.0007303510954031443,9.53613068301412e-05,0.0004080749577219469,0.007000917564290827,0.011502527406580367,0.003711981342778673
0.009,0.003431609826863409,0.02529124297580038,0.0076054966411942095,7.576732916958785e-05,0.0004498195372619405,0.003915780763432642,0.0007722302134866004,3.217979410266681e-05,0.0002761126595812048,0.006407971406799521,0.011996359241960382,0.00404162808267112
0.01,0.003649733999367203,0.026315035021519273,0.006641028198268312,6.96266901551224e-06,0.000571397409352802,0.004023768425232723,0.0008135964669710971,0.0001579863571553236,0.00014558294937482117,0.005817741614778317,0.012492445229248627,0.0043687631843942355
0.011,0.003867020564431823,0.027325577584547067,0.005690820593994449,6.179460610323424e-05,0.000692525327383636,0.004131212674600245,0.0008544185559347545,0.00028197987778510016,1.6558622500425413e-05,0.005230416951307329,0.012990492558871893,0.004693179732708516
0.012,0.00408331954833264,0.02832212588096779,0.0047553522184549755,0.00013051351380271014,0.0008131457971666749,0.004238052062407228,0.0008946658029914947,0.000404083968606675,0.00011088968161343972,0.004646179919053729,0.013490206451483036,0.005014673742936373
0.013,0.004298481690885133,0.029303953523223954,0.0038350820173915817,0.00019920519539075372,0.0009332028725687135,0.004344226828941232,0.0009343082049857405,0.0005242244605802583,0.00023669357315259774,0.004065206658924858,0.013991290552981107,0.0053330444463992
0.014,0.00451235863217342,0.03027035369692499,0.0029304489745250804,0.000267882939538082,0.0010526422292109316,0.004449679037327935,0.0009733164838229527,0.0006423294999082922,0.0003607869998129422,0.0034876668689121444,0.014493447328450308,0.005648094571406826
0.015,0.004724803095436121,0.031220640289186318,0.002041871637601892,0.0003365622011727089,0.0011714112316815733,0.004554352703685116,0.0010116621363541307,0.0007583296405180461,0.0004831063288176151,0.002913723743300778,0.014996378454586538,0.005959630619326169
0.016,0.004935669065782496,0.03215414896569182,0.0011697476889178794,0.0004052606154811862,0.0012894589942642626,0.004658193923676404,0.0010493174832359733,0.0008721579320198594,0.0006035904229582902,0.002343533932361817,0.015499785210161064,0.006267463135267707
0.017,0.005144811964478878,0.0330702381938759,0.00031445356088564014,0.0004739980069180062,0.001406736435200308,0.004761150995137861,0.001086255716691653,0.0009837500030400418,0.0007221807105959921,0.0017772475225532693,0.016003368864043015,0.006571406972939313
0.018,0.00535208881862027,0.03396829020980716,0.0005236559029843433,0.000542796393143324,0.0015231963245216518,0.004863174536451427,0.0011224509471004353,0.0010930441398391592,0.0008388212495875949,0.0012150080371263854,0.016506831060275284,0.006871281553229015
0.019,0.00555735842607018,0.034847711926525284,0.0013442477415138512,0.0006116799838272971,0.0016387933255096428,0.004964217600341488,0.0011578782483478095,0.0011999813601431737,0.0009534587851288825,0.0006569524568699692,0.017009874199675114,0.007166911116091482
0.02,0.005760481515602815,0.03570793578173291,0.0021470111237026105,0.0006806751742758711,0.0017534840298515082,0.00506423578277918,0.0011925137018710813,0.0013045054821349104,0.0010660428015227307,0.00010321126055409132,0.017512201817409232,0.007458124965324248
0.021,0.0059613209022130005,0.03654842052285628,0.002931657551156426,0.0007498105338482266,0.001867226986581313,0.005163187326693478,0.0012263344393379939,0.0014065631885728232,0.0011765255678934737,0.00044609151551547294,0.018013518955970614,0.007744757705825747
0.022,0.006159741637572639,0.037368651927538375,0.003697921015417322,0.0008191167891514081,0.001979982724905238,0.005261033220204176,0.0012593186838976234,0.0015061040860198565,0.0012848621778794452,0.0009908381995334978,0.018513532532960168,0.008026649472928277
0.023,0.006355611155612247,0.03816814345763633,0.004445558110652171,0.0008886268020137966,0.002091713771021168,0.005357737289106141,0.001291445789943395,0.001603080759176811,0.0013910105833482322,0.001530917388601641,0.019011951703055755,0.008303646153397036
0.024,0.006548799413196933,0.03894643684483992,0.005174348102272474,0.0009583755422562765,0.0022023846590493476,0.005453266283345017,0.001322696281327939,0.0016974488203244736,0.0014949316221942166,0.0020662238363413675,0.019508488213534996,0.00857559959768305
0.025,0.006739179025852156,0.039703102606192274,0.00588409295216618,0.00102840005529709,0.002311961936194506,0.005547589957230182,0.0013530518879697878,0.0017891669538897684,0.0015965890402938991,0.0025966583246016654,0.020002856752701557,0.00884236782301339
0.026,0.006926625398478594,0.040437740488099914,0.0065746173013379264,0.0010987394246417196,0.0024204141622607123,0.005640681143131075,0.0013824955807941763,0.0018781969561635385,0.0016959495077092212,0.0031221275202029915,0.020494775290541167,0.00910381520689656
0.027,0.007111016850980458,0.0411499798378439,0.007245768410875251,0.0011694347293211829,0.0025277119036391763,0.005732515818399064,0.0014110116049548523,0.0019645037702089438,0.0017929826292423488,0.003642543817707852,0.020983965410903676,0.009359812670612989
0.028,0.007292234738719361,0.041839479902119926,0.007897416062273049,0.0012405289963499893,0.0026338277218878126,0.005823073165250226,0.0014385855112895615,0.0020480555160078072,0.0018876609494583685,0.004157825169243646,0.0214701526344764,0.009610237852247442
0.029,0.007470163567695373,0.04250593005269372,0.008529452418246729,0.001312067148279067,0.0027387361570212626,0.005912335623336124,0.0014652041859666287,0.0021288235158974074,0.001979959952305855,0.0046678949024235444,0.021953066731789733,0.0098549752687994
0.03,0.007644691104346692,0.04314904993978129,0.009141791845236804,0.0013840959459216042,0.002842413705632317,0.006000288934722718,0.0014908558782824306,0.002206782315353232,0.0020698580554786065,0.005172681527422299,0.022432442025487578,0.010093916466879276
0.031,0.007815708479851304,0.04376858957418521,0.009734370698849438,0.0014566639263342376,0.0029448387939704666,0.006086922180995963,0.001515530226569637,0.002281909699175164,0.0021573365996737743,0.005672118534270226,0.022908017681108145,0.010326960161466123
0.032,0.007983110288811811,0.04436432933952385,0.010307147073498807,0.0015298213361442591,0.0030459917461094885,0.006172227812217741,0.0015392182821752603,0.0023541867031370294,0.002242379832911547,0.006166144181430229,0.023379537985651566,0.010554012362170146
0.033,0.008146794682210577,0.04493607993609943,0.010860100517536022,0.0016036200603245726,0.0031458547473417926,0.006256201667465408,0.0015619125314671797,0.0024235976211638274,0.002324974890089602,0.006654701276719372,0.023846752613246133,0.010774986486414347
0.034,0.008306663454536465,0.04548368225810142,0.011393231715176044,0.0016781135465292057,0.0032444118029410713,0.006338842986703365,0.0015836069158285798,0.002490130008107247,0.0024051117679517804,0.007137736951629441,0.02430941687725125,0.010989803458928431
0.035,0.008462622125004572,0.04600700720597325,0.011906562136568877,0.001753356725111043,0.0033416486924359753,0.006420154413764645,0.0016042968496020312,0.0025537746781963203,0.002482783295654279,0.007615202430091453,0.024767291968148315,0.011198391796943664
0.036,0.008614580012811854,0.046505955435905494,0.012400133657403577,0.0018294059249501047,0.003437552919537079,0.006500141990274067,0.0016239792359488325,0.002614525699244844,0.0025579851011136023,0.008087052792717845,0.0252201451765754,0.011400687680501398
0.037,0.008762450306389084,0.046980457048539224,0.012874008149479498,0.001906318785226164,0.003532113657860931,0.006578815140418286,0.0016426524805942312,0.0026723803827006544,0.002630715573319068,0.008553246737542876,0.025667750100860736,0.011596635007349506
0.038,0.00890615012662023,0.047430471219034445,0.013328267043718254,0.0019841541632744865,0.00362532169260307,0.006656186646551831,0.0016603165034343973,0.0027273392696241946,0.002700975820790248,0.009013746338266041,0.026109886838404366,0.011786185431999552
0.039,0.009045600584004962,0.04785598577066746,0.013763010867114423,0.002062972038668515,0.0037171693583285753,0.006732272615720609,0.0016769727479865738,0.002779406112684319,0.0027687696263586077,0.009468516800984659,0.026546342160256847,0.011969298388638945
0.04,0.009180726829745453,0.04825701669409711,0.014178358755136376,0.002142833413678956,0.0038076504730723735,0.006807092437286334,0.0016926241886700295,0.002828587854257924,0.0028341033984544926,0.009917526220380826,0.026976909668273947,0.012145941097713617
0.041,0.009311458100754533,0.04863360761442514,0.014574447941095161,0.0022238002102646153,0.0038967602689695667,0.006880668731935614,0.001707275335912633,0.0028748946007183243,0.002896986119085477,0.01036074533630554,0.027401389934313798,0.012316088556108622
0.042,0.009437727758611689,0.04898582920819926,0.014951433223996722,0.002305935163756092,0.00398449531966551,0.006953027292442875,0.0017209322390864946,0.002918339592996505,0.002957429288697835,0.010798147291679,0.02781959062110139,0.012479723510971107
0.043,0.009559473322529804,0.04931377857259174,0.015309486416379404,0.0023893017133991773,0.004070853464780741,0.007024197016622861,0.0017336024872863633,0.0029589391734993367,0.003015446868117196,0.011229707392600336,0.028231326584612877,0.01263683641735209
0.044,0.009676636496430016,0.049617578549133665,0.01564879577361817,0.0024739638899311835,0.00415583373172137,0.007094209832955827,0.0017452952079748461,0.0029967127494691585,0.003071055217766621,0.011655402871530964,0.028636419958111965,0.012787425379972813
0.045,0.009789163190249,0.04989737700456877,0.015969565406155257,0.0025599862003708737,0.004239436255130404,0.00716310061939489,0.0017560210635261472,0.0030316827528699937,0.0031242730343609116,0.012075212654382876,0.029034700218264216,0.012931496079527583
0.046,0.009897003535619415,0.05015334607156204,0.01627201467609837,0.002647433510211225,0.004321662194274072,0.007230907115873584,0.0017657922457033218,0.0030638745968867105,0.003175121285275502,0.012489117132306736,0.029426004234018005,0.013069061684021237
0.047,0.010000111896072306,0.05038568135212263,0.01655637757961516,0.0027363709232127668,0.004402513648654118,0.007297669831028771,0.0017746224681039842,0.0030933166291241664,0.003223623140787335,0.012897097938935155,0.029810176299140668,0.013200142745718383
0.048,0.010098446871920177,0.050594601086657226,0.016822902116543876,0.002826863659001737,0.00448199357213326,0.0073634319436436625,0.0017825269566083303,0.0031200400815943117,0.0032698039043837536,0.013299137733794701,0.030187068149418884,0.013324767084355798
0.049,0.010191971300001856,0.05078034529156167,0.017071849648627267,0.002918976928680114,0.004560105685856841,0.0074282391993000015,0.0017895224378628408,0.0031440790175818164,0.0033136909413328014,0.013695219992556764,0.030556538965574094,0.01344296965733706
0.05,0.01028065224850669,0.05094317486821155,0.017303494247757352,0.003012775808653163,0.004636854390250634,0.007492139802710467,0.001795627125833927,0.003165470275483462,0.0033553136057034283,0.014085328804752885,0.03091845536292667,0.013554792417685813
0.051,0.01036446100713636,0.05108337068616581,0.017518122035596828,0.0031083251128750915,0.004712244676375005,0.007555184306185181,0.0018008607064683945,0.0031842534097220325,0.0033947031660171837,0.014469448679535087,0.031272691368794334,0.013660284160572982
0.052,0.010443373072895617,0.051201232643359594,0.017716030515920838,0.003205689263706138,0.004786282036919044,0.007617425494670448,0.0018052443205018507,0.003200470628840665,0.0034318927297052617,0.014847564360016644,0.031619128388548745,0.013759500359246142
0.053,0.010517368131819319,0.051297078706024866,0.017897527901000992,0.003304932161566976,0.004858972377123716,0.007678918267782184,0.0018088005444612274,0.0032141667308884917,0.0034669171665372284,0.015219660646683498,0.03195765516118498,0.01385250299117873
0.054,0.010586430036938977,0.05137124393104383,0.018062932433335857,0.003406117053570214,0.004930321925929456,0.007739719519238579,0.0018115533699120496,0.003225389036212623,0.0034998130311806,0.015585722230321578,0.03228816770518042,0.013939360355232001
0.055,0.01065054678277191,0.051424079473441825,0.018212571704029252,0.0035093064013047366,0.005000337147649891,0.007799888014074774,0.0018135281810036732,0.0032341873177747036,0.003530618485043942,0.01594573353486174,0.032610569255333614,0.014020146880591519
0.056,0.0107097104765874,0.05145595158176997,0.01834678196913682,0.0036145617479466288,0.005069024654477534,0.007859484263997544,0.00181475173036582,0.0032406137291133455,0.003559373217550689,0.016299678570505842,0.032924770191187426,0.014094942928206879
0.057,0.010763917306673667,0.051467240584199415,0.018465907465336925,0.0037219435848703255,0.005136391120127799,0.00791857040121284,0.0018152521134075093,0.003244722730078458,0.0035861183669870554,0.01664754079746664,0.03323068795756352,0.014163834585430713
0.058,0.01081316750780028,0.05145833986823739,0.018570299726317758,0.003831511217935041,0.005202443194923602,0.007977210051036005,0.0018150587410658437,0.0032465710104705474,0.0036108964410655905,0.016989303000630177,0.03352824697766517,0.01422691345452065
0.059,0.010857465324045378,0.05142965485707801,0.01866031690129394,0.0039433226336237385,0.005267187422614456,0.008035468203574878,0.0018142023110487087,0.0032462174117267794,0.003633751237345859,0.01732494717542941,0.033817378559134983,0.014284276435636088
0.06,0.010896818969135908,0.05138160198569258,0.018736323077070596,0.004057434365214953,0.005330630159212496,0.00809341108476022,0.00181271477761382,0.0032437228468042197,0.0036547277636547327,0.017654454425196253,0.034098020793379126,0.014336025504933719
0.061,0.010931240584430763,0.051314607679806806,0.018798687605062762,0.0041739013591723115,0.0053927774941149,0.008151106026986215,0.001810629319927016,0.00323915021841697,0.0036738721586493136,0.017977804870231585,0.034370118448402896,0.014382267488343061
0.062,0.010960746194660337,0.05122910734088573,0.018847784434653132,0.004292776841942901,0.005453635173769907,0.00820862133961506,0.0018079803090447141,0.0032325643357865074,0.0036912316126638577,0.01829497756880097,0.03463362285536948,0.014423113831584233
0.063,0.010985355661521149,0.05112554434015597,0.018883991454232855,0.004414112187363212,0.005513208528133884,0.008266026179590975,0.0018048032735682484,0.0032240318300636272,0.0037068542889773983,0.01860595045023637,0.034888491789106225,0.014458680366972463
0.064,0.011005092635210378,0.051004369024559,0.01890768984122235,0.00453795678488107,0.00557150240015982,0.008323390422397117,0.0018011348640204253,0.0032136210685769872,0.003720789245631609,0.018910700260308905,0.035134689342833675,0.014489087077538947
0.065,0.01101998450397195,0.05086603773737169,0.01891926342231505,0.004664357908815151,0.005628521078551448,0.008380784533572464,0.0017970128159957846,0.0032014020680583882,0.0037330863579197577,0.019209202519035424,0.035372185797459384,0.01451445785898787
0.066,0.011030062341712497,0.05071101185606336,0.018919098045127494,0.0047933605888891995,0.005684268234009379,0.00843827944098709,0.0017924759121351775,0.0031874464069895758,0.003743796241657762,0.01950143149108906,0.03560095748583522,0.014534920280003624
0.067,0.01103536085373021,0.05053975684978794,0.01890758096237482,0.004925007482291289,0.005738746859185203,0.008495946408057432,0.0017875639429729272,0.0031718271372098267,0.0037529701773377673,0.019787360168994496,0.03582098665239537,0.014550605341416133
0.068,0.011035918320578804,0.05035274135873844,0.018885100229623076,0.005059338747516229,0.0057919592125472135,0.008553856908070175,0.0017823176667020996,0.0031546186949175732,0.0037606600352541905,0.020066960269292434,0.036032261308564975,0.014561647234721682
0.069,0.011031776540061324,0.05015043629742546,0.018852044117601493,0.005196391920253669,0.005843906766348564,0.008612082499772406,0.0017767787679008682,0.0031358968111928056,0.0037669182016830585,0.02034020224184415,0.03623477508427933,0.014568183100443617
0.07,0.011022980767317291,0.04993331398378555,0.01880880053999171,0.0053362017915898246,0.005894590158876605,0.008670694704374952,0.001770989815260458,0.0031157384221598442,0.003771797506187879,0.020607055292411372,0.036428527075917184,0.014570352786806729
0.071,0.011009579652938797,0.04970184729587945,0.018755756497548015,0.00547880028879815,0.005944009151151067,0.008729764884106393,0.001764994218352415,0.00309422157890214,0.0037753511501181524,0.02086748741859575,0.036613521690947254,0.014568298609193451
0.072,0.010991625179033621,0.049456508857798176,0.018693297539341024,0.005624216359001389,0.005992162588228869,0.008789364122448141,0.0017588361834701759,0.003071425357232446,0.0037776326363582946,0.021121465459165073,0.03678976848960801,0.014562165110846376
0.073,0.010969172593148857,0.049197770256251196,0.01862180724185574,0.005772475855993141,0.006039048365263713,0.008849563106175202,0.0017525606685774207,0.003047429767413818,0.003778695700374411,0.021368955156733985,0.03695728202397134,0.014552098825276359
0.074,0.010942280339976525,0.048926101289161424,0.01854166670661338,0.00592360143051243,0.006084663398457727,0.00891043200932191,0.0017462133373935007,0.0030223156639199054,0.0037785942425944893,0.021609921233703963,0.03711608167476378,0.01453824804082461
0.075,0.010911009990781522,0.0486419692474423,0.01845325407692612,0.006077612424267951,0.006129003601030195,0.008972040379187928,0.0017398405126447293,0.002996164655316454,0.003777382262145795,0.02184432748129973,0.0372661914863123,0.014520762567806707
0.076,0.010875426170516981,0.04834583823099419,0.018356944074334407,0.006234524768005644,0.006172063864315946,0.009034457024497216,0.0017334891285101948,0.0029690590143390916,0.0037751137919633977,0.02207213686146837,0.037407639999934954,0.014499793508634737
0.077,0.010835596482615097,0.04803816849983216,0.018253107555217498,0.0063943508839035485,0.006213838044094053,0.00909774990581878,0.0017272066822925124,0.002941081588235254,0.003771842835277112,0.022293311621333942,0.03754046008602615,0.014475493031275034
0.078,0.010791591431460005,0.047719415861137676,0.018142111088009092,0.0065570995925666176,0.006254318952235271,0.009161986028351334,0.001721041185346957,0.0029123157094315772,0.0037676233034811793,0.022507813419822664,0.03766468877502006,0.014448014146361234
0.079,0.010743484342569854,0.04739003109290245,0.018024316551390362,0.00672277602488703,0.006293498353742714,0.009227231337165437,0.0017150411133050596,0.00288284510658318,0.003762508955392246,0.022715603465993058,0.03778036708737285,0.014417510488252187
0.08,0.010691351280544213,0.04705045940469675,0.01790008075377261,0.00689138153903444,0.006331366969245148,0.009293550614986728,0.0017092553556294144,0.0028527538160580687,0.0037565533379072084,0.022916642668525986,0.03788753986268975,0.014384136100304002
0.081,0.010635270964868127,0.04670113993594499,0.01776975507432182,0.007062913642843042,0.006367914482986431,0.009361007382593937,0.0017037331645347448,0.002822126093908585,0.0037498097280825784,0.023110891795759002,0.0379862555881407,0.01434804522461103
0.082,0.010575324683696373,0.0463425052919363,0.017633685125721228,0.007237365921863728,0.006403129556338088,0.009429663801896197,0.0016985241033071914,0.002791046328382046,0.0037423310766686044,0.023298311645591513,0.03807656622636407,0.014309392096458285
0.083,0.010511596205761703,0.0459749811176468,0.01749221043881727,0.007414727973345456,0.0064369998468440815,0.00949958058174458,0.001693677994050461,0.0027595989530232574,0.0037341699531417034,0.02347886322454289,0.03815852704315409,0.0142683307437186
0.084,0.01044417169055569,0.04559898570931311,0.0173456641692493,0.007594985346398169,0.006469512032788079,0.0095708168865202,0.0016892448648845298,0.002727868360421201,0.0037253784922856447,0.023652507935208546,0.03823219643534351,0.014225014791423433
0.085,0.010373139596923285,0.04521492966357514,0.017194372826120876,0.007778119488570607,0.00650065184325661,0.009643430247525538,0.0016852748966202156,0.0026959388166512624,0.0037160083423746367,0.023819207771320437,0.03829763575938726,0.014179597271732377
0.086,0.01029859059019802,0.0448232155638939,0.017038656022726383,0.007964107699052803,0.006530404093658677,0.009717476477188961,0.0016818183689313166,0.002663894376463423,0.003706110615011434,0.02397892551957252,0.038354909161196285,0.014132230439517335
0.087,0.01022061744798703,0.04442423770383839,0.016878826249299116,0.008152923088687427,0.006558752726654266,0.009793009586075938,0.0016789256060451081,0.0026318187992655628,0.003695735836672314,0.024131624967323646,0.03840408340777758,0.014083065593763863
0.088,0.01013931496469584,0.04401838184672235,0.01671518866769763,0.008344534546948407,0.0065856808584395,0.009870081702685064,0.0016766469219715175,0.0025997954659487663,0.003684933902007791,0.024277271115248574,0.03844522772123811,0.01403225290498009
0.089,0.01005477985486658,0.04360602502096323,0.016548040927897394,0.008538906716020568,0.006611170830332552,0.009948742995994088,0.0016750325652913668,0.0025679072965989875,0.0036737540289422123,0.024415830393973707,0.0384784136157208,0.013979941248796793
0.09,0.009967110655395562,0.04318753535043413,0.01637767300610453,0.00873599997209045,0.0066352042655999635,0.010029041600713296,0.0016741326635253925,0.0025362366691377,0.0036622447156081216,0.024547270883704102,0.03850371473785688,0.013926278045938226
0.091,0.009876407626697501,0.042763271918981834,0.01620436706425821,0.008935770413936419,0.006657762131457035,0.010111023545201618,0.0016739971671085208,0.0025048653389337506,0.0036504536991444044,0.024671562535817544,0.038521206711333925,0.013871409108738554
0.092,0.009782772652888197,0.04233358466818144,0.016028397330640074,0.009138169858886557,0.0066788248061692415,0.010194732682000995,0.0016746757929972896,0.0024738743594300786,0.003638427916381005,0.024788677395363744,0.03853096698618271,0.013815478494371019
0.093,0.009686309141060582,0.04189881432728266,0.015850030001262356,0.009343145846195599,0.006698372151173361,0.010280210620944231,0.001676217967940967,0.0024433440038330884,0.0036262134664261135,0.024898589823356496,0.03853307469336637,0.013758628364946292
0.094,0.00958712191973022,0.04145929237417408,0.01566952316165987,0.009550641647875674,0.00671638358812507,0.010367496664791,0.001678672771447943,0.002413353687918517,0.0036138555751633102,0.025001276717687187,0.038527610505204715,0.013700998854622047
0.095,0.009485317136524861,0.04101534102606025,0.01548712672866219,0.009760596286998949,0.006732838180763137,0.010456627747345916,0.0016820888784789092,0.002383981894012837,0.0036013985616568226,0.0250967177314278,0.038514656502092404,0.013642727943845663
0.096,0.009381002155186707,0.04056727325843009,0.015303082411672057,0.009972944563474466,0.006747714721460343,0.010547638374007757,0.0016865145018984513,0.0023553060962111165,0.003588885806453658,0.02518489548723819,0.03849429604588694,0.013583951340825707
0.097,0.009274285451948276,0.04011539285081379,0.015117623692925075,0.010187617087286055,0.0067609918223104125,0.010640560564688685,0.0016919973347183734,0.002327402686890725,0.003576359721762509,0.02526579578655453,0.03846661366026117,0.013524802370299344
0.098,0.009165276511339374,0.03965999445779072,0.014930975826154476,0.010404540319160065,0.006772648010580674,0.010735423799032822,0.0016985844921705007,0.0023003469045773596,0.003563861723481447,0.025339407812224216,0.03843169491823351,0.013465411869636429
0.099,0.009054085721486055,0.03920136370371875,0.014743355853032382,0.010623636618607806,0.006782661828343066,0.010832254963864665,0.0017063224536540856,0.0022742127632172505,0.0035514322050404575,0.02540572432326904,0.0383896263370022,0.013405908092297643
0.1,0.008940824268970048,0.03873977729968345,0.014554972636706213,0.010844824299257618,0.0067910119360812165,0.010931078302812024,0.0017152570046119666,0.002249072982907619,0.0035391105130216237,0.025464741840493698,0.03834049528011696,0.013346416618641183
0.101,0.008825604033324384,0.03827550318119499,0.014366026911698917,0.01106801769135756,0.006797677220057892,0.011031915368069365,0.0017254331783986283,0.0022249989221362868,0.0035269349245195232,0.025516460821707887,0.038284389866924035,0.013287060274046934
0.102,0.00870853748124249,0.0378088006651843,0.014176711349398395,0.011293127211294171,0.006802636903213848,0.011134784974291932,0.0017368951982110875,0.0022020605115808216,0.003514942626206724,0.025560885825419863,0.03822139888912577,0.013227959054298017
0.103,0.008589737560570588,0.037339920624866615,0.013987210638328343,0.011520059437938457,0.006805870659355076,0.0112397031546399,0.0017496864191590173,0.0021803261895177698,0.0035031696950729354,0.025598025662015488,0.03815161173420749,0.013169230058128603
0.104,0.008469317594138347,0.03686910568105942,0.013797701578373532,0.011748717195600302,0.006807358730370266,0.011346683119022268,0.0017638492705535013,0.00215986283889259,0.0034916510808094057,0.025627893531665124,0.038075118315397345,0.013110987426817234
0.105,0.008347391173463935,0.03639659040858266,0.01360835318813024,0.01197899964334998,0.006807082046204924,0.011455735214613108,0.0017794251984953851,0.0021407357260999262,0.003480420589810531,0.025650507148482368,0.0379920090077386,0.013053342290678012
0.106,0.008224072052349261,0.035922601556453465,0.013419326824566225,0.012210802370450755,0.006805022347302761,0.011566866888720813,0.0017964546088455775,0.0021230084415215784,0.0034695108707614134,0.025665888850753694,0.03790237458978796,0.012996402722276059
0.107,0.00809947404036151,0.03544735828070423,0.013230776314197954,0.012444017497637863,0.006801162309207617,0.011680082654086633,0.0018149768106609163,0.0021067428418667473,0.0034589534017744773,0.02567406569731255,0.0378063061904404,0.012940273696165834
0.108,0.007973710896185423,0.03497107238876164,0.013042848095016159,0.012678533783973538,0.00679548566900064,0.011795384056680307,0.0018350299601799383,0.0020919989943570276,0.0034487784790327163,0.025675069550309647,0.03770389524042911,0.012885057054921175
0.109,0.007846896220836026,0.03449394859439002,0.012855681368407677,0.01291423673900638,0.006787977353230997,0.011912769646053048,0.001856651005443339,0.0020788351227980055,0.0034390152068934153,0.025668937144736597,0.03759523342813447,0.012830851481194989
0.11,0.0077191433507462,0.03401618478221396,0.012669408260330082,0.013151008739971482,0.006778623606987721,0.012032234948300736,0.0018798756316348157,0.002067307555579676,0.003429691489403565,0.025655710145110863,0.037480412659414465,0.01277775247551526
0.111,0.007590565250779693,0.03353797228080172,0.012484153990995102,0.013388729153788699,0.006767412123755357,0.012153772441681206,0.0019047382072293118,0.00205747067564838,0.0034208340231751083,0.025635435189739954,0.0373595250212083,0.01272585233949411
0.112,0.007461274407255653,0.033059496143226307,0.012300037052307596,0.013627274463649563,0.006754332175694557,0.012277371534921888,0.0019312717310363769,0.002049376872493403,0.003412468291564298,0.02560816392296668,0.03723266274866432,0.012675240164099917
0.113,0.007331382721098721,0.032580935433938946,0.012117169392292241,0.013866518400027533,0.006739374743990229,0.01240301854824904,0.001959507780226093,0.0020430764961921186,0.0034046185600970125,0.02557395301576874,0.037099918195524086,0.01262600182261994
0.114,0.007201001401248243,0.03210246352070349,0.01193565660572243,0.014106332075994772,0.006722532648914631,0.01253069669716234,0.0019894764594245687,0.0020386178135581062,0.003397307873084299,0.02553286417505593,0.03696138380748841,0.012578219967922055
0.115,0.007070240858475838,0.03162424837026406,0.011755598130144963,0.014346584126769044,0.0067038006792583295,0.012660386078962511,0.002021206350965387,0.0020360469664360763,0.0033905580513806806,0.025484964141991244,0.03681715209832734,0.012531974033611948
0.116,0.006939210599780451,0.031146452846363765,0.011577087446470562,0.014587140853439021,0.006683175720785565,0.0127920636620164,0.0020547244663819473,0.0020354079321860314,0.003384389691250256,0.025430324679677423,0.03666731562858462,0.012487340238684343
0.117,0.0068080191235600235,0.030669235008695166,0.011400212283279556,0.014827866370831643,0.006660656883373016,0.012925703277721698,0.0020900561992234752,0.002036742486397877,0.0033788221643197332,0.02536902255059835,0.036511966986844294,0.01244439159528984
0.118,0.006676773815793825,0.03019274841133202,0.011225054823981763,0.015068622759497672,0.0066362456264934125,0.013061275615119654,0.00212722527927593,0.002040090167876921,0.0033738736186106444,0.025301139484263054,0.03635119877362984,0.012403197919275667
0.119,0.006545580847498293,0.02971714239916774,0.01105169191597628,0.015309270221799953,0.006609945882705646,0.01319874821809899,0.002166253728268275,0.0020454882459395225,0.003369560980652018,0.02522676213554639,0.03618510358806178,0.012363825843188597
0.12,0.006414545073734847,0.029242562400882282,0.010880195280983166,0.0155496672420895,0.006581764178808695,0.013338085485134172,0.002207161817143294,0.002052971690056011,0.0033658999586785782,0.02514598203424754,0.0360137740173984,0.012326338831435173
0.121,0.00628376993445037,0.028769150216975972,0.010710631725759536,0.015789670750946345,0.006551709754310321,0.01347924867150616,0.0022499680249694074,0.0020625731418750706,0.0033629050469204252,0.025058895526396174,0.035837302629535814,0.012290797197278762
0.122,0.006153357357422644,0.02829704430143782,0.010543063352457816,0.016029136293446378,0.006519794676857648,0.013622195893964146,0.0022946889995669336,0.002074322889660225,0.003360589530990539,0.024965603707831047,0.035655781968462905,0.012257258121329266
0.123,0.006023407663567821,0.02782638003565852,0.010377547767928109,0.01626791820139476,0.006486033954277576,0.013766882137795915,0.002341339519920709,0.0020882488451647876,0.0033589654943759974,0.024866212350563514,0.03546930455257637,0.012225775671161973
0.124,0.005894019474848868,0.0273572899932624,0.010214138291305578,0.016505869769446107,0.0064504456428802065,0.013913259266276913,0.0023899324604510397,0.002104376522966774,0.003358043826036352,0.024760831822422297,0.03527796287568348,0.012196400821689716
0.125,0.00576528962500535,0.026889904194609765,0.010052884159249471,0.016742843435012346,0.006413050951687234,0.014061276032469877,0.0024404787572151663,0.0021227290222806112,0.0033578342291082277,0.024649577000455527,0.035081849410461836,0.012169181475904938
0.126,0.005637313073307359,0.02642435034980324,0.00989383072820677,0.016978690961837302,0.006373874342258427,0.014210878093360713,0.002492987376110693,0.0021433270112588957,0.003358345230710251,0.024532567178540347,0.034881056614096836,0.012144162485603566
0.127,0.005510182821520076,0.025960754089129418,0.009737019673068314,0.017213263627089324,0.006332943623799082,0.014362008026344412,0.0025474652831508075,0.0021661887137951245,0.003359584192837786,0.024409925969613937,0.03467567693577498,0.012121385671702544
0.128,0.005383989834249508,0.02549923917998945,0.009582489181588662,0.017446412411794027,0.006290290043238097,0.014514605348108136,0.002603917416878897,0.002191329898837147,0.0033615573243330277,0.02428178120288773,0.03446580282567905,0.012100889843773508
0.129,0.005258822962823541,0.02503992772951285,0.009430274143968277,0.017677988194403752,0.0062459483699757925,0.014668606535991934,0.0026623466629875467,0.002218763872221145,0.0033642696939125073,0.024148264816339093,0.03425152674511593,0.012082710818443506
0.13,0.005134768872845286,0.024582940372208397,0.009280406337047596,0.017907841947277348,0.006199956975019944,0.014823945051941602,0.002722753831203752,0.0022485014710373705,0.0033677252442304586,0.02400951274469689,0.03403294117740982,0.012066881436361011
0.131,0.005011911975537765,0.024128396442202868,0.009132914602630727,0.018135824935816808,0.006152357904258054,0.014980551369196921,0.0027851376344981763,0.002280551060540635,0.0033719268069518954,0.023865664803055513,0.03381013863920948,0.01205343157748314
0.132,0.004890334362980426,0.023676414129852538,0.008987825019542768,0.018361788919972043,0.006103196945649408,0.01513835300187272,0.0028494946706712565,0.002314918533618837,0.0033768761188037117,0.023716864566172405,0.033583211691881734,0.012042388174495045
0.133,0.004770115747319085,0.02322711062275289,0.0088451610691279,0.01858558635778032,0.006052523690158406,0.015297274537588312,0.002915819406363129,0.002351607312830733,0.003382573838566816,0.023563259243430546,0.03335225295269393,0.012033775224215573
0.134,0.004651333404012437,0.022780602231379895,0.008704943794000516,0.018807070610553877,0.006000391586288978,0.015457237673288578,0.0029841041635280223,0.002390618355020361,0.0033890195649689744,0.023404999549384707,0.0331173551055397,0.012027613796874202
0.135,0.004534062119160769,0.02233700449974347,0.008567191949952995,0.019026096149271293,0.005946857988114615,0.015618161254383053,0.0030543391084071054,0.002431950158511674,0.0033962118554368577,0.023242239569765677,0.032878610911042626,0.012023922043168371
0.136,0.004418374140946228,0.021896432301503014,0.008431922150999313,0.019242518761672576,0.005891984196727791,0.015779961317314465,0.0031265122430265547,0.0024755987728840583,0.0034041482456649425,0.023075136622792987,0.03263611321596552,0.012022715199035548
0.137,0.004304339135198371,0.021458999921997186,0.008299149007594632,0.019456195759511775,0.005835835495055703,0.0159425511356623,0.003200609399239688,0.0025215578113271814,0.0034128252699566295,0.022903851115634664,0.03238995496194532,0.01202400558811061
0.138,0.004192024145083735,0.021024821126616293,0.00816888525811336,0.01966698618538828,0.00577848117600357,0.0161058412698916,0.0032766142353240985,0.002569818465570784,0.0034222384822898445,0.022728546395837868,0.03214022919367227,0.012027802621892672
0.139,0.004081493554904026,0.02059400921594122,0.008041141893693145,0.019874751018558626,0.005719994563889698,0.016269739620865604,0.003354508235137541,0.0026203695233808833,0.0034323824780580423,0.022549388597538574,0.031887029066732596,0.01203411279771497
0.14,0.003972809057975248,0.020166677068103905,0.007915928276568878,0.020079353379118318,0.0056604530291304005,0.016434151487246577,0.003434270709830602,0.0026731973886089974,0.0034432509164399076,0.022366546482258047,0.03163044785540726,0.012042939694685374
0.141,0.003866029628550112,0.019742937168874035,0.007793252252035154,0.020280658729926272,0.005599937996122874,0.016598979626914014,0.0035158788021107217,0.002728286103776754,0.003454836543357784,0.02218019127411796,0.03137057896074342,0.012054283967827433
0.142,0.003761211497738241,0.019322901630016636,0.007673120254184401,0.020478535075614743,0.00553853494426475,0.016764124322536943,0.003599307493051637,0.0027856173751756004,0.0034671312149956836,0.02199049648934244,0.031107515919197436,0.012068143340697116
0.143,0.003658408133371909,0.01890668219647789,0.007555537405566032,0.0206728531579847,0.005476333402042024,0.016929483451445872,0.0036845296114445115,0.0028451706004606904,0.00348012592186188,0.02179763775994518,0.03084135241210956,0.01208451259679296
0.144,0.003557670223758419,0.018494390242940337,0.0074405076109016295,0.020863486647037254,0.00541342693411268,0.01709495255995296,0.0037715158456901945,0.002906922898718957,0.0034938108133969878,0.021601792651514372,0.030572182276226302,0.01210338357013172
0.145,0.0034590456652532795,0.018086136760256125,0.007328033644978302,0.02105031232684386,0.0053499131213127216,0.017260424942263198,0.003860234758234817,0.00297084914299241,0.0035081752231438546,0.021403140475014307,0.03030009951544576,0.012124745135422475
0.146,0.003362579553581462,0.017682032332236183,0.007218117234832151,0.021233210275416598,0.0052858935335164565,0.017425791724104998,0.0039506528025530325,0.003036921995237011,0.003523207694507337,0.021201862092535276,0.030025198313925437,0.012148583198320854
0.147,0.003268314178827587,0.017282187103257508,0.007110759136327129,0.02141206403771349,0.005221473695294103,0.017590941951189713,0.004042734342685947,0.0031051119436943516,0.0035388960071378703,0.020998139716956552,0.029747573050660867,0.012174880686269283
0.148,0.0031762890240106057,0.01688671073715007,0.0070059592052298635,0.021586760790917203,0.0051567630443229324,0.01775576268258797,0.0041364416753460875,0.0031753873426483108,0.0035552272039735336,0.02079215670554312,0.02946731831561462,0.012203617540431233
0.149,0.003086540767154929,0.016495712367829322,0.006903716462877353,0.021757191501171735,0.005091874882518598,0.01792013908908453,0.004231735054610533,0.00324771445453359,0.003572187618974401,0.020584097347569896,0.02918452892744605,0.012234770709220574
0.15,0.0029991032867673346,0.016109300542138875,0.006804029156532851,0.021923251071052263,0.005026926319861394,0.018083954556542936,0.004328572719234032,0.0033220574943593818,0.0035897629055820974,0.02037414664615029,0.028899299952860398,0.012268314143921813
0.151,0.002914007670625841,0.015727583155356724,0.006706894814526517,0.02208483847717144,0.004962038210904304,0.018247090794278185,0.004426910922622561,0.0033983786764099255,0.003607938065935771,0.020162490094528845,0.028611726727564832,0.01230421879689131
0.152,0.002831282227782941,0.01535066737980258,0.006612310296280964,0.022241856897472708,0.004897335083968828,0.018409427948401107,0.004526703965510952,0.0034766382631835793,0.003626697480871657,0.01994931344716547,0.028321904878788568,0.012342452622815673
0.153,0.0027509525036826157,0.014978659586971527,0.0065202718373285826,0.022394213827898943,0.0048329450630567325,0.018570844720063828,0.004627904231385594,0.003556794616532695,0.003646024940726821,0.019734802485990622,0.028029930349286806,0.012382980583480375
0.154,0.002673041298289594,0.014611665263614532,0.006430775089439963,0.02254182118824068,0.004768999782527604,0.01873121848850617,0.00473046222468635,0.0036388042509676653,0.00366590367695947,0.019519142782269686,0.027735899422696834,0.012425764656474863
0.155,0.0025975686871302713,0.014249788922188948,0.006343815156000417,0.022684595417072826,0.004705634294615684,0.018890425438784143,0.004834326611812221,0.0037226218890890166,0.00368631639458967,0.019302519454599144,0.027439908750057456,0.012470763848233453
0.156,0.002524552045146762,0.013893134006110053,0.006259386622787288,0.022822457555788583,0.004642986969886127,0.019048340694053773,0.004939444264944635,0.003808200519110384,0.0037072453054561804,0.019085116923655134,0.027142055377251638,0.012517934211783517
0.157,0.002454006073268068,0.013541802790244181,0.0061774835843090075,0.022955333321824208,0.004581199390756643,0.019204838452284462,0.00504576030869367,0.0038954914544326864,0.003728672162277319,0.01886711866440264,0.026842436773091914,0.012567228869543787
0.158,0.002385942827604713,0.013195896277086323,0.0060980996658714275,0.02308315317123566,0.004520416238232753,0.019359792127286515,0.005153218169568996,0.003984444395227145,0.003750578293495544,0.018648706956534124,0.026541150857737797,0.012618598041489237
0.159,0.0023203717511753015,0.012855514089054897,0.006021228041543841,0.02320585235084409,0.004460785172024779,0.01951307449395706,0.005261759628279692,0.004075007491982741,0.0037729446388764455,0.01843006263393226,0.026238296031115126,0.012671989078977253
0.16,0.0022572997080750334,0.01252075435732081,0.00594686144820439,0.023323370940207314,0.004402456704231937,0.019664557837671397,0.005371324874874048,0.0041671274109710485,0.0037957517858235594,0.018211364833942867,0.025933971200996976,0.01272734650451189
0.161,0.0021967310199963205,0.012191713607579344,0.005874992195846426,0.023435653883691947,0.004345584066791047,0.01981411410776298,0.0054818525667392395,0.004260749401575952,0.0038189800063619965,0.017992790747216332,0.025628275810394393,0.012784612057706837
0.162,0.0021386675050097128,0.011868486643173191,0.0058056121743241314,0.023542651012927858,0.004290323072893607,0.019961615075035213,0.005593279889487175,0.004355817365427559,0.003842609294737216,0.017774515368848418,0.025321309863882816,0.012843724747691897
0.163,0.0020831085185098737,0.011551166425975609,0.0057387128567150105,0.023644317059946955,0.004236831972577635,0.020106932493228785,0.005705542620752793,0.00445227392727026,0.0038666194055705532,0.01755671125153256,0.025013173952453546,0.01290462091219369
0.164,0.002030050996228241,0.011239843955439475,0.005674285299484486,0.02374061166134815,0.004185271302703555,0.020249938264333776,0.005818575196923641,0.004550060507485987,0.0038909898925099397,0.01733954826141902,0.02470396927643222,0.012967234283512274
0.165,0.001979489499213225,0.010934608146214306,0.005612320139650444,0.023831499353868964,0.004135803731529456,0.02039050460759059,0.0059323107828073195,0.004649117396185115,0.003915700147312293,0.017123193337352592,0.024393797665955303,0.01303149606161148
0.166,0.0019314162606809166,0.010635545704732654,0.00555280758915578,0.023916949561756683,0.004088593898109269,0.020528504231969086,0.006046681344228796,0.0047493838287684985,0.003940729439292613,0.016907810254130195,0.02408276159845108,0.01309733499453533
0.167,0.0018858212346430402,0.010342741005168132,0.005495737426661915,0.02399693657631552,0.004043808246744373,0.020663810511855438,0.0061616177235334964,0.004850798062855361,0.003966056955072687,0.016693559390388833,0.023770964212541768,0.013164677466347975
0.168,0.001842692146221963,0.01005627596516535,0.005441098986978442,0.02407143952797401,0.004001614856723456,0.020796297665621393,0.006277049717954533,0.0049532974564634865,0.003991661838558699,0.01648059750170604,0.023458509317774393,0.013233447592767844
0.169,0.0018020145435636893,0.009776229921734493,0.005388881148346868,0.024140442351179903,0.0039621832675897995,0.0209258409367088,0.006392906160784499,0.005056818547320425,0.004017523231071753,0.01626907749947118,0.023145501399602413,0.013303567324630809
0.17,0.0017637718512596198,0.00950267950769029,0.005339072317800626,0.024203933742390694,0.003925684300182141,0.021052316776833807,0.006509115005275728,0.005161297133177068,0.004043620311547802,0.016059148236070617,0.022832045619069537,0.013374956559275956
0.171,0.0017279454251874326,0.009235698528997652,0.005291660414827771,0.02426190711139096,0.003892289873703827,0.021175603030897515,0.006625603411179165,0.005266668352989252,0.004069932336713414,0.01585095429692731,0.02251824780667414,0.013447533259903126
0.172,0.0016945146086807567,0.008975357843365684,0.005246632853565752,0.024314360526141176,0.0038621728190821425,0.021295579123179965,0.00674229783382172,0.005372866768830078,0.004096438681132104,0.015644635799939837,0.02220421444991148,0.013521213582905702
0.173,0.0016634567899359303,0.008721725240409112,0.005203976523757356,0.02436129665135208,0.0038355066888832267,0.02141212624438988,0.006859124115615154,0.0054798264483949585,0.004123118877004823,0.015440328202866428,0.021890052674020458,0.013595912013136759
0.174,0.001634747460562114,0.008474865323673805,0.00516367777069125,0.024402722680983802,0.003812465564046549,0.02152512753913682,0.0069760075798837706,0.005587481047961218,0.004149952653599943,0.015238162119188482,0.02157587021552119,0.013671541507023165
0.175,0.0016083602751784524,0.008234839394802972,0.00512572237433982,0.024438650264879964,0.0037932238576964556,0.021634468293376865,0.007092873126889809,0.0056957638956636044,0.004176919976183667,0.015038263142966465,0.021261775388209135,0.01374801364340093
0.176,0.001584267111958885,0.008001705340103476,0.00509009552789376,0.02446909542974849,0.003777956116278392,0.02174003612135541,0.007209645331921516,0.00580460807494735,0.004204001084321077,0.014840751683171042,0.020947877041352748,0.013825238781905266
0.177,0.001562438134021985,0.007775517519758016,0.005056781815879326,0.024494078494678433,0.003766836818256014,0.02184172115154281,0.007326248545290646,0.005913946508061981,0.004231176529420044,0.01464574280793413,0.020634284509936894,0.013903126228708977
0.178,0.0015428418515608,0.007556326659919753,0.005025765192030237,0.024513623981340417,0.0037600401705940546,0.021939416211043016,0.007442606994067969,0.006023712039459276,0.004258427211394029,0.014453346099120285,0.02032110755693463,0.013981584409361848
0.179,0.0015254451846069181,0.00734417974792061,0.004997028957071752,0.02452776051898268,0.003757739903242023,0.022033017007950538,0.007558644885371356,0.006133837518954284,0.004285734414324965,0.014263665517572225,0.020008456307780552,0.014060521048441386
0.18,0.0015102135263241367,0.00713911993081945,0.0049705557365608884,0.02453652074433478,0.0037601090618275914,0.02212242231112827,0.007674286511012266,0.006244255884497941,0.00431307984101369,0.014076799279337953,0.019696441177428525,0.014139843355680849
0.181,0.0014971108067295049,0.0069411864175075106,0.00494632745891665,0.02453994119657794,0.0037673197987672046,0.022207534126870015,0.007789456353301711,0.0063549002443970895,0.004340445646311577,0.013892839743140458,0.01938517279056418,0.014219458218194243
0.182,0.0014860995567423775,0.00675041438457518,0.004924325333768048,0.024538062207617884,0.0037795431630042423,0.02228825787189418,0.007904079191814668,0.006465703958807654,0.0043678144691320095,0.013711873309304793,0.01907476189568244,0.014299272398370255
0.183,0.0014771409724654231,0.006566834886128604,0.00490452983074424,0.0245309277879703,0.003796948888589522,0.02236450254208792,0.00801808021090981,0.006576600720322588,0.0043951694630444795,0.013533980330313077,0.01876531927382537,0.014379192736958861
0.184,0.0014701949796053426,0.0063904747677290775,0.0048869206588278615,0.024518585508612665,0.0038197051823233457,0.022436180876390356,0.00813138510779572,0.0066875246334784965,0.004422494325357735,0.01335923503311642,0.018456955642809535,0.014459126360824892
0.185,0.001465220297944926,0.006221356584614229,0.004871476746388096,0.02450108637916494,0.003847978510683248,0.022503209515178747,0.008243920200923538,0.006798410293012513,0.004449773324601205,0.013187705453292809,0.018149781557766163,0.014538980894791564
0.186,0.0014621745057821897,0.006059498524349839,0.0048581762220041,0.024478484722753272,0.0038819333862685464,0.022565509152506307,0.008355612538471191,0.006909192860710849,0.004476991326317376,0.013019453381099501,0.017843907308788785,0.014618664676944977
0.187,0.001461014104257972,0.005904914334055567,0.004846996396182224,0.024450838047906587,0.003921732154002117,0.022623004681534765,0.008466390006669221,0.00701980814069676,0.004504133817084931,0.012854534319427645,0.017539442816446406,0.014698086976719663
0.188,0.00146169458150079,0.0057576132523452245,0.00483791374406188,0.024418206917844524,0.003967534777340036,0.022675625332509254,0.008576181437706856,0.007130192653006725,0.004531186926703411,0.012692997453627257,0.017236497525879784,0.014777158215036692
0.189,0.001464170476525159,0.005617599946119829,0.004830903889195048,0.02438065481752893,0.004019498624749036,0.022723304802634972,0.008684916716951287,0.007240283705303705,0.004558137448480797,0.012534885633134577,0.016935180300150517,0.01485579018572046
0.19,0.001468395442824807,0.005484874452348405,0.004825941588474478,0.02433824801886356,0.004077778256719291,0.022765981377227042,0.008792526889211016,0.007350019462580873,0.004584972857574515,0.012380235364801206,0.01663559931345592,0.014933896277378894
0.191,0.0014743223116045776,0.005359432124967799,0.0048230007182767315,0.024291055444436,0.004142525213586162,0.022803598041517447,0.008898944263770879,0.0074593390147185005,0.004611681327347227,0.012229076817794823,0.016337861944759627,0.01501139169489564
0.192,0.001481903154595015,0.005241263587030138,0.004822054261879497,0.024239148530200396,0.004213887804440852,0.022836102582531423,0.009004102517921178,0.00756818244176924,0.004638251743713331,0.012081433839920021,0.016042074672322413,0.01508819367965056
0.193,0.001491089346392513,0.005130354688226088,0.004823074298207966,0.024182601087494128,0.00429201089741787,0.022863447680506976,0.009107936798699248,0.007676490876862837,0.0046646737174672395,0.011937323985205833,0.015748342969554498,0.015164221727555624
0.194,0.0015018316262661489,0.0050266864679126885,0.00482603199196238,0.024121489164764965,0.004377035711656579,0.022885590989429046,0.009210383822561098,0.007784206566639646,0.004690937594596623,0.011796758552630073,0.015456771202552665,0.01523939780396695
0.195,0.0015140801593710395,0.004930235123772853,0.0048308975851774445,0.024055890909355882,0.004469099611242797,0.022902495206380394,0.009311381972703248,0.007891272929141019,0.004717034464591533,0.011659742635891574,0.015167462529634997,0.015313646554509095
0.196,0.0015277845973087566,0.004840971986227441,0.004837640390263232,0.02398588642965633,0.0045683359014436,0.02291412812956309,0.009410871393763212,0.007997634609104232,0.004742956166763239,0.01152627518418075,0.014880518803142555,0.015386895510820179
0.197,0.0015428941379784823,0.0047588634987112445,0.004846228784576478,0.02391155765789012,0.004674873627553801,0.022920462704991137,0.009508794083644512,0.008103237530632591,0.004768695294586443,0.011396349073919874,0.014596040473736535,0.015459075290191492
0.198,0.0015593575846669446,0.004683871203913648,0.004856630206572605,0.02383298821378293,0.004788837376674259,0.022921477061962795,0.009605093982235333,0.008208028947234991,0.004794245198079283,0.011269951191442938,0.014314126497376303,0.015530119788037304
0.199,0.001577123404329492,0.004615951736073644,0.004868811153593639,0.023750263269337105,0.004910347082738648,0.022917154537475642,0.00969971705680989,0.008311957489246851,0.004819599984240136,0.011147062526566973,0.01403487424511714,0.015599966362102325
0.2,0.0015961397850192854,0.004555056819406774,0.004882737181353224,0.02366346941492868,0.0050395178350984785,0.022907483689759537,0.00979261138391372,0.0084149732086534,0.00484475451556739,0.011027658276980434,0.013758379415819888,0.015668556007307086
0.201,0.0016163546924281933,0.00450113327272825,0.004898372905183603,0.023572694526922993,0.005176459690970856,0.022892458301093602,0.009883727227542742,0.008517027621339138,0.004869704406693848,0.010911707963343856,0.01348473595182154,0.015735833520148804
0.202,0.001637715925512339,0.004454123020322437,0.004915682003109273,0.023478027636981647,0.005321277492052553,0.022872077370061018,0.009973017113435087,0.008618073746785105,0.004894446019167889,0.010799175554966432,0.013214035957574942,0.01580174765161736
0.203,0.0016601711711856355,0.00441396310909496,0.004934627220809919,0.02337955880321339,0.005474070685607665,0.02284634509338625,0.010060435899300406,0.008718066145228695,0.004918976454409167,0.01069001960589235,0.0129463696212252,0.015866251247659044
0.204,0.0016836680580732783,0.0043805857320305085,0.004955170378533994,0.02327737898330836,0.005634933150343686,0.02281527083749058,0.010145940840810849,0.008816960952294943,0.004943293544861398,0.010584193401203992,0.012681825139052548,0.01592930137632797
0.205,0.0017081542093230133,0.004353918257967672,0.004977272380025188,0.023171579909788013,0.005803953027401078,0.02277886909989488,0.010229491653179023,0.008914715911112096,0.004967395843362667,0.010481645113323904,0.012420488642684586,0.015990859440893644
0.206,0.0017335772944759482,0.004333883267691959,0.005000893223526767,0.023062253967500137,0.005981212556791783,0.022737159460605713,0.010311050568163744,0.009011290401941898,0.004991282610755792,0.010382317968070673,0.012162444128970773,0.01605089127831134
0.207,0.0017598850804011036,0.004320398596339991,0.005025992014931046,0.02294949407348742,0.0061667879196311715,0.022690166523649042,0.010390582386375982,0.009106645469380469,0.005014953801764919,0.010286150420193766,0.011907773392418015,0.01610936724261404
0.208,0.0017870254812978746,0.0043133773821027,0.005052526983140321,0.022833393559360645,0.006360749086515894,0.02263791984895932,0.010468054524792008,0.009200743847212145,0.005038410049165721,0.010193076338079875,0.011656555960104844,0.01616626227295317
0.209,0.0018149466077682027,0.004312728121213531,0.005080455497699159,0.022714046056316262,0.006563159672406886,0.022580453874882427,0.010543437059403755,0.009293549981022473,0.0050616526462737375,0.010103025197290597,0.011408869029019485,0.01622155594617812
0.21,0.0018435968149573226,0.0043183547292082085,0.005109734088746634,0.022591545382952615,0.006774076798383761,0.02251780783160894,0.010616702762942297,0.009385030048695954,0.0050846835277702845,0.010015922282560073,0.011164787405797287,0.016275232513979953
0.211,0.001872924749760078,0.004330156608444078,0.0051403184693230184,0.022465985436055835,0.006993550960647673,0.022450025645913318,0.01068782713760106,0.00947515197893695,0.005107505248881535,0.009931688897851296,0.010924383448854996,0.016327280924728526
0.212,0.001902879397089279,0.004348028721868034,0.0051721635600512714,0.022337460084542148,0.007221625907165577,0.022377155837623917,0.010756788442666317,0.009563885467957006,0.005130120962928136,0.009850242584039708,0.010687727012927103,0.016377694830198863
0.213,0.0019334101252027301,0.004371861673021457,0.00520522351620078,0.02220606306675765,0.007458338522365986,0.0222992514082807,0.010823567716939013,0.009651201994470643,0.005152534397273577,0.009771497343761934,0.010454885396002776,0.016426472577402963
0.214,0.0019644667300854355,0.004401541792267527,0.0052394517571295405,0.022071887891346797,0.007703718720309205,0.02221636972245033,0.010888148795810328,0.009737074833138527,0.005174749827720427,0.009695363872937306,0.010225923288643713,0.01647361718572435
0.215,0.0019959994788822225,0.004436951229221081,0.005274800998090358,0.02193502774190664,0.007957789346760068,0.022128572382166232,0.010950518322837942,0.009821479066592932,0.005196772051430205,0.009621749798441508,0.01000090272563936,0.01651913630951794
0.216,0.0020279591523735545,0.004477968051353621,0.005311223284376654,0.021795575385644868,0.008220566090586976,0.022035925094957214,0.011010665755662301,0.009904391596173723,0.005218606358466987,0.009550559921385173,0.009779883039933924,0.016563042186307483
0.217,0.00206029708648418,0.0045244663487362426,0.005348670027774882,0.021653623086256325,0.00849205740489895,0.021938497535935624,0.01106858336610265,0.009985791151493064,0.0052402585020823135,0.0094816964654242,0.00956292081874429,0.016605351570694826
0.218,0.0020929652128112656,0.004576316344871211,0.005387092045283751,0.021509262521226074,0.008772264438316624,0.021836363204437808,0.011124266234283859,0.010065658298934592,0.005261734667872555,0.009415059329502744,0.009350069861780008,0.016646085654091494
0.219,0.0021259160981566706,0.004633384513549979,0.005426439600054887,0.021362584703756335,0.009061180976757767,0.021729599275736377,0.011177712236672976,0.010143975449178059,0.005283041441952625,0.009350546344404185,0.009141381141475937,0.016685269970393202
0.22,0.002159102983047646,0.004695533701662828,0.005466662444504314,0.02121367990949421,0.009358793396105168,0.02161828644836684,0.011228922027949104,0.010220726863822317,0.005304185778299966,0.009288053532460178,0.008936902765154941,0.016722934287742353
0.221,0.002192479819231657,0.004762623257873682,0.00550770986553851,0.021062637608201977,0.009665080626113194,0.02150250878763279,0.011277899016687392,0.010295898661158516,0.005325174965427712,0.009227475369743679,0.008736679939048302,0.016759112486569402
0.222,0.002226001306134041,0.004834509167063083,0.005549530731833512,0.020909546400462102,0.009980014125896173,0.021382353565883524,0.011324649334901696,0.010369478821123823,0.0053460165925477135,0.009168705050049358,0.008540754934110746,0.01679384242417658
0.223,0.0022596229262708254,0.004911044190432236,0.005592073543102287,0.020754493959451007,0.010303557871324736,0.021257911100192615,0.011369181801552806,0.01044145718944676,0.005366718515383981,0.009111634749944692,0.008349167053576663,0.016827165786217946
0.224,0.0022933009796117596,0.0049920780111505055,0.005635286481284865,0.020597566977756783,0.010635668354633785,0.021129274588089345,0.011411507880180354,0.010511825480979509,0.005387288821793715,0.009056155894157711,0.008161952602222394,0.016859127925522407
0.225,0.002326992616889359,0.005077457385416413,0.005679117463595081,0.020438851119161383,0.010976294596519406,0.020996539941994425,0.011451641630851706,0.010580577282199318,0.005407735797344921,0.009002159420551731,0.007979144857329564,0.016889777688798614
0.226,0.002360655871849227,0.005167026298788185,0.005723514197353515,0.020278430975260563,0.011325378170973874,0.02085980562298937,0.011489599656643685,0.010647708052849885,0.005428067890988355,0.00894953604392323,0.00780077404138183,0.016919167231854784
0.227,0.0023942496924360232,0.005260626127625934,0.005768424236527299,0.020116390026755807,0.011682853243080367,0.020719172474517985,0.011525401044889189,0.010713215126684612,0.005448293680949601,0.008898176517847824,0.007626867296567251,0.016947351824049633
0.228,0.0024277339709080207,0.005358095805475863,0.005813795039885359,0.019952810609220495,0.012048646619963707,0.020574743556589073,0.01155906730343742,0.01077709771126638,0.005468421840955188,0.008847971893793235,0.007457448661196503,0.016974389642745193
0.229,0.0024610695728701417,0.005459271994217946,0.005859574030664931,0.019787773883112633,0.01242267781506999,0.02042662398102488,0.011590622292197515,0.01083935688676923,0.005488461106894248,0.008798813776716628,0.007292539048175448,0.017000341558559433
0.23,0.0024942183652102807,0.005563989259790745,0.00590570865763398,0.01962135980777111,0.012804859125924328,0.02027492074827824,0.011620092150258195,0.010899995603713011,0.005508420244004352,0.008750594576364873,0.00713215622568282,0.01702527091223579
0.231,0.0025271432429176933,0.005672080252298445,0.005952146457427312,0.01945364711908637,0.013195095725490897,0.020119742586321536,0.011647505218894915,0.01095901867954332,0.005528308014657039,0.008703207753500211,0.006976314800204224,0.017049243283976796
0.232,0.002559808154756944,0.005783375890294798,0.005998835118031312,0.01928471331048735,0.013593285767233978,0.01996119979209145,0.011672891960786635,0.011016432793948804,0.005548133146805468,0.008656548060280003,0.006825026202071574,0.01707232625613518
0.233,0.002592178127767619,0.005897705549026106,0.006045722543289991,0.019114634616852838,0.013999320503953633,0.01979940407595741,0.011696284875764535,0.011072246482787488,0.005567904303143977,0.008610511774024094,0.006678298673657201,0.017094589170204254
0.234,0.002624219290558813,0.006014897252400463,0.006092756918301054,0.018943486000952494,0.014413084420442458,0.01963446840966912,0.01171771841340601,0.011126470130472996,0.0055876300510184366,0.008564996923605522,0.006536137260371575,0.01711610287908119
0.235,0.0026558988953675083,0.006134777868434151,0.00613988677556588,0.01877134114205249,0.014834455379977594,0.019466506878224564,0.01173722888277617,0.011179115960649605,0.005607318833117866,0.008519903507707816,0.006398543804610654,0.01713693949558183
0.236,0.002687185338850328,0.0062571733079093235,0.006187061061752604,0.018598272426377904,0.01526330478462526,0.01929563453607743,0.011754854359614283,0.011230198024962137,0.005626978938970743,0.008475133704216372,0.006265516942793545,0.017157172138166612
0.237,0.0027180481815781295,0.006381908725960602,0.006234229204925211,0.018424350939197663,0.01569949774929422,0.019121967268070972,0.011770634591266739,0.011279732189703968,0.005646618477263238,0.008430592070053568,0.006137052105624346,0.017176874674802035
0.238,0.0027484581662026294,0.006508808726292706,0.006281341182082752,0.0182496464583744,0.016142893289430145,0.018945621655444757,0.0117846108996739,0.011327736120104697,0.005666245348993319,0.00838618573081487,0.006013141521701951,0.017196121465839032
0.239,0.0027783872342635983,0.00663769756771829,0.006328347586843387,0.01807422744929389,0.01659334452219488,0.01876671484721177,0.011796826082713586,0.011374229262001845,0.005685867221475718,0.008341824559603063,0.005893774224587563,0.017214987106746748
0.24,0.0028078085416035816,0.006768399372695642,0.006375199697100978,0.017898161061154605,0.017050698880926196,0.018585364437147044,0.011807324314183798,0.011419232820634465,0.005705491503217386,0.008297421344488982,0.005778936063422685,0.017233546171500202
0.241,0.002836696472354037,0.006900738337538665,0.006421849542476732,0.01772151312464379,0.01751479834262683,0.018401688346568447,0.011816151042677744,0.011462769736306166,0.005725125319688927,0.008252891944061144,0.0056686097171724705,0.017251872957382015
0.242,0.002865026651452776,0.007034538943963944,0.006468249971382047,0.017544348151035765,0.01798547966818595,0.018215804713027348,0.01182335288957695,0.011504864656691687,0.005744775490024115,0.00820815543057848,0.005562774712550648,0.01727004123192066
0.243,0.0028927759556493455,0.007169626171630421,0.006514354717500056,0.01736672933272456,0.0184625746549888,0.018027831784961843,0.011828977546372408,0.011545543905602246,0.0057644485046857005,0.008163134220318714,0.005461407445662808,0.017288123982650363
0.244,0.002919922522954112,0.007305825711318422,0.006560118465485381,0.017188718545171934,0.018945910401520532,0.017837887822299517,0.01183307367151952,0.011584835448075896,0.005784150504139273,0.008117754190816884,0.005364481207385081,0.017306193170340833
0.245,0.0029464457604885127,0.007442964178391214,0.006605496915677835,0.017010376350236656,0.019435309583517614,0.017646091002932154,0.011835690787031233,0.011622768851712807,0.0058038872585760935,0.00807194478480389,0.0052719662124756025,0.01732431948630887
0.246,0.0029723263506970512,0.0075808693261873875,0.006650446847626502,0.016831762000857533,0.01993059074116689,0.01745255933492596,0.011836879175004316,0.01165937524422517,0.005823664148720616,0.008025639100773677,0.005183829632397039,0.017342572114390095
0.247,0.0029975462558842424,0.007719370259004451,0.006694926182224981,0.016652933447083254,0.02043156857680003,0.017257410574283292,0.011836689774253506,0.011694687267211942,0.0058434861477505385,0.007978773970225256,0.005100035631810571,0.017361018498117314
0.248,0.0030220887210413963,0.007858297644346113,0.006738894042266623,0.016473947343465457,0.02093805426247777,0.01706076214804029,0.011835174077201626,0.011728739026197433,0.005863357804349378,0.007931290021743895,0.0050205454086852345,0.017379724113618992
0.249,0.0030459382749310694,0.007997483924111015,0.0067823108112397305,0.016294859057847444,0.021449855756800057,0.01686273108246761,0.011832384027148772,0.011761566036992405,0.005883283226905637,0.00788313173220625,0.004945317237951851,0.017398752248713262
0.25,0.0030690807294033147,0.008136763524397458,0.006825138190194519,0.016115722681584246,0.021966778130213492,0.016663433936136,0.011828371916026596,0.011793205168452909,0.00590326606886884,0.007834247465505168,0.004874306518618459,0.017418163788631345
0.251,0.0030915031769261653,0.008275973063588175,0.006867339252523153,0.015936591041220676,0.022488623898019613,0.016462986737611048,0.01182319028273469,0.011823694581728309,0.005923309515269853,0.007784589499274218,0.004807465824255366,0.017438017008766304
0.252,0.0031131939863200315,0.008414951558362803,0.0069088784965013784,0.01575751571163692,0.023015193360220343,0.01626150492754457,0.011816891812149885,0.011853073666107607,0.005943416270411012,0.007734114040143341,0.004744744956753386,0.017458367374815806
0.253,0.003134142796690442,0.008553540627264844,0.006949721895446372,0.015578547030647864,0.023546284947271543,0.016059103304922377,0.011809529234889909,0.011881382971593139,0.005963588546730663,0.007682781228080382,0.0046860910032577915,0.017479267350674347
0.254,0.0031543405095570782,0.008691584691427588,0.006989836945351144,0.015399734115011486,0.02408169557075366,0.015855895977204937,0.011801155227898916,0.011908664138349921,0.005983828054844326,0.007630555130376133,0.00463144839618077,0.017500766214432095
0.255,0.0031737792791810895,0.008828931172042712,0.007029192709860224,0.015221124877764669,0.02462122097791174,0.015651996314060255,0.011791822315906577,0.011934959823189956,0.006004135994758964,0.007577403725820195,0.004580758976194498,0.01752290988285414
0.256,0.003192452501098766,0.008965430684138692,0.007067759862452723,0.015042766046768135,0.025164656108966003,0.015447516904343041,0.011781582773800947,0.01196031362325183,0.006024513048248544,0.007523298879598822,0.004533962058104155,0.017545740744739885
0.257,0.0032103547988781736,0.009100937226225845,0.0071055107256976545,0.014864703184312007,0.02571179545604511,0.015242569515925456,0.011770488529951311,0.011984769997034595,0.006044959372370045,0.007468216309429859,0.004490994499495292,0.017569297503586743
0.258,0.003227482009124967,0.009235308365365992,0.00714241930744584,0.014686980707613557,0.02626243342254214,0.015037265057935812,0.011758591070519511,0.012008374182945722,0.006065474594089344,0.007412135543437413,0.004451790772043527,0.017593615029996876
0.259,0.0032438311647714473,0.009368405417243616,0.007178461333825446,0.014509641910031394,0.026816364681634796,0.01483171354491724,0.011745941344805975,0.012031172115521955,0.00608605780597599,0.007355039870261076,0.004416283035368147,0.017618724224272034
0.26,0.003259400476686932,0.009500093620852312,0.007213614278913541,0.01433272898282848,0.027373384532646167,0.014626024062386559,0.011732589671690722,0.01205321033947479,0.00610670756291674,0.00729691628188978,0.004384401213306859,0.017644651889644338
0.261,0.003274189313647614,0.00963024230745817,0.00724785739096431,0.014156283037337632,0.027933289253854875,0.014420304733261766,0.011718585647248944,0.01207453592170207,0.006127421879791029,0.007237755409705748,0.004356073072487406,0.017671420616590414
0.262,0.003288198180701952,0.009758725063553379,0.007281171715090116,0.013980344127408364,0.02849587645030005,0.014214662684637468,0.011703978053641066,0.012095196361399232,0.006148198230046401,0.007177551454217412,0.004331224303072609,0.0176990486786687
0.263,0.003301428695965209,0.009885419887563899,0.007313540112317091,0.013804951272033064,0.02906094539506879,0.014009204014420686,0.011688814769394535,0.012115239498400892,0.006169033545108761,0.007116302108951847,0.00430977860155832,0.017727549940304496
0.264,0.0033138835658759113,0.010010209340118006,0.007344947274968282,0.01363014247806161,0.029628297362501103,0.013804033757395173,0.011673142681208691,0.012134713419887476,0.006189924214564667,0.007054008478967973,0.004291657755508785,0.017756933776925377
0.265,0.003325566558949113,0.010132980687712102,0.0073753797383580314,0.013455954762921834,0.030197735951700163,0.013599255850357306,0.011657007597425164,0.012153666365605515,0.006210866087065253,0.006990674994442099,0.0042767817301203985,0.017787205007822396
0.266,0.0033364824780664757,0.010253626039632067,0.007404825888807845,0.013282424177273527,0.03076906739869861,0.013394973096053201,0.01164045416331058,0.012172146631774537,0.006231854471922952,0.006926309319767099,0.004265068756510923,0.017818363842085308
0.267,0.00334663713135033,0.01037204247801917,0.0074332759680143645,0.013109585827537325,0.03134210087561068,0.013191287125744166,0.011623525778294064,0.012190202473885421,0.006252884141396964,0.006860922258594678,0.004256435421635418,0.017850405837938486
0.268,0.003356037301676822,0.010488132181022042,0.007460722073813528,0.012937473898254753,0.031916648775097686,0.012988298360336714,0.011606264515297313,0.012207882008634197,0.006273949333683491,0.0067945276552358,0.004250796759731042,0.017883321875788675
0.269,0.0033646907148906255,0.010601802539045429,0.007487158157393963,0.012766121674247465,0.03249252697848209,0.012786105970119067,0.011588711042304854,0.012225233115281517,0.006295043756636688,0.00672714229281741,0.00424806634519104,0.017917098145276623
0.27,0.003372606006789377,0.010712966264175958,0.007512580017020605,0.012595561562546336,0.03306955510585793,0.012584807833224543,0.0115709045463521,0.012242303336773355,0.006316160592246852,0.006658785788574527,0.004248156386764418,0.017951716146593234
0.271,0.00337979268895,0.01082154149292066,0.007536985288336636,0.012425825114055386,0.03364755674658475,0.012384500492984025,0.011552882660150015,0.012259139780994447,0.006337292501899332,0.006589480486636695,0.0042509778229718135,0.017987152706276672
0.272,0.0033862611134716203,0.010927451882430085,0.0075603734313164596,0.012256943044908961,0.03422635966867263,0.012185279114341814,0.01153468139160264,0.012275789022552152,0.006358431632435654,0.006519251348646298,0.0042564404186195915,0.018023380007653772
0.273,0.003392022436710454,0.01103062670039327,0.007582745713943465,0.012088945257479264,0.0348057960058248,0.011987237439500245,0.01151633505649729,0.012292297005508029,0.006379569623038876,0.006448125842523544,0.004264452862285629,0.018060365636030695
0.274,0.0033970885820806753,0.011131000908789452,0.007604105192683471,0.01192186086099463,0.03538570242130677,0.0117904677429352,0.011497876214652078,0.01230870894748428,0.006400697612967532,0.006376133829669789,0.004274922864645547,0.018098072638675515
0.275,0.0034014722019943744,0.011228515241667805,0.007624456689818051,0.011755718191734876,0.03596592024828038,0.011595060785892678,0.011479335609794486,0.012325069245568084,0.006421806250166104,0.0063033074508796645,0.004287757257509306,0.018136459599571657
0.276,0.003405186639016775,0.011323116277110398,0.007643806767693347,0.01159054483277968,0.036546295606653456,0.011401105770440062,0.01146074211342461,0.012341421384419647,0.0064428857007854026,0.006229681011215321,0.004302862093444516,0.018175480728856646
0.277,0.00340824588632096,0.011414756503521944,0.007662163699932472,0.011426367633299102,0.037126679496777205,0.011208690293106754,0.011442122672893344,0.012357807846964388,0.006463925659653541,0.006155290864083289,0.004320142745872468,0.018215085966796725
0.278,0.0034106645475370603,0.01150339438038218,0.007679537439656116,0.011263212727385861,0.037706927870504885,0.011017900298109977,0.01142350226390017,0.012374270028020816,0.006484915361745318,0.0060801752947451946,0.004339504009533449,0.018255221102085033
0.279,0.003412457796101133,0.011588994393587033,0.007695939584755996,0.011101105552430053,0.03828690168029613,0.010828820030127142,0.011404903847586564,0.01239084815118632,0.006505843594701422,0.006004374403487375,0.004360850201226719,0.018295827904189398
0.28,0.0034136413342169335,0.011671527105488693,0.007711383340266608,0.010940070867026985,0.03886646690724949,0.010641531986552249,0.011386348332371132,0.012407581189274004,0.0065266987124473035,0.005927929988671263,0.004384085260736657,0.01833684426941365
0.281,0.0034142313515481697,0.011750969199724442,0.007725883477883372,0.010780132768389296,0.039445494569123926,0.010456116869166435,0.011367854540644729,0.012424506788563501,0.006547468649954796,0.005850885429885793,0.004409112851860966,0.01837820438027328
0.282,0.0034142444837588163,0.011827303520902162,0.00773945629268466,0.010621314709208187,0.040023860709503443,0.010272653535164744,0.011349439180421245,0.012441661197095876,0.00656814093917837,0.005773285571422921,0.004435836463461634,0.018419838877723308
0.283,0.003413697771015174,0.011900519109186125,0.007752119557132367,0.010463639513879852,0.04060144636925604,0.010091218947509627,0.011331116822022546,0.012459079197208546,0.006588702726184555,0.005695176606294793,0.004464159510466358,0.018461675045716643
0.284,0.003412608616557427,0.011970611229796655,0.007763892472445942,0.010307129393986605,0.04117813754137658,0.009911888124618597,0.011312899879864306,0.01247679404247234,0.0066091407894795715,0.005616605961004686,0.004493985434756162,0.01850363700751561
0.285,0.0034109947454427463,0.012037581397401373,0.00777479561746587,0.010151805962901621,0.041753825110222985,0.009734734089434934,0.011294798599401667,0.012494837399162241,0.006629441559527899,0.005537622181274765,0.004525217805880701,0.018545645933127415
0.286,0.003408874163558208,0.0121014373953358,0.0077848508951456515,0.009997690249375487,0.042328404776075,0.009559827817978319,0.011276821049286572,0.012513239292369542,0.0066495911394441635,0.005458274818923681,0.004557760421543258,0.018587620257185355
0.287,0.0034062651170003646,0.012162193289549995,0.00779408147683392,0.00984480270996467,0.042901776965874674,0.009387238187526138,0.011258973118781719,0.012532028056848755,0.006669575326833677,0.0053786143200765905,0.004591517407792994,0.018629475906549512
0.288,0.003403186051917805,0.012219869437138186,0.007802511744525132,0.009693163240178021,0.043473846730958395,0.009217031924628104,0.011241258520473826,0.01255123029268668,0.006689379636754361,0.005298691914879807,0.0046263933188554094,0.018671126536850165
0.289,0.0033996555749112073,0.012274492489272065,0.007810167231268423,0.009542791184245112,0.04404452363256501,0.009049273553199821,0.011223678798332297,0.01257087082587912,0.006708989325773932,0.005218559508883205,0.004662293236525414,0.01871248377714337
0.29,0.003395692414080379,0.012326095388325655,0.00781707455993444,0.009393705343444293,0.04461372161589965,0.008884025342972326,0.011206233341161328,0.012590972673900545,0.00672838941709903,0.005138269576246303,0.00469912286904151,0.01875345748179637
0.291,0.003391315380799849,0.012374717358949199,0.007823261380549522,0.009245923982964647,0.045181358873551264,0.00872134725859548,0.011188919401488298,0.012611557016351955,0.006747564726755811,0.0050578750549184195,0.004736788649354101,0.01879395598867958
0.292,0.0033865433322961243,0.01242040389281969,0.007828756306410022,0.009099464837313118,0.0457473576991,0.008561296909705071,0.011171732119920454,0.012632643170768688,0.006766499890804334,0.004977429243938278,0.00477519783269577,0.0188338863827165
0.293,0.0033813951350934947,0.012463206726768214,0.007833588849183178,0.00895434511431436,0.04631164433178519,0.008403929502266257,0.011154664554989873,0.012654248573660525,0.006785179393571905,0.004896985702992658,0.004814258593356392,0.018873154763834155
0.294,0.0033758896293928273,0.012503183813963793,0.007837789353187114,0.008810581497782766,0.046874148793106356,0.008249297791496387,0.011137707718493622,0.012676388766843459,0.006803587596892255,0.004816598154366148,0.00485388012056022,0.018911666518363377
0.295,0.0033700455944492692,0.012540399287824036,0.007841388929028735,0.008668190148966562,0.04743480471619756,0.008097452036649088,0.01112085061632035,0.01269907738911005,0.006821708770335672,0.00473632038740413,0.004893972713335188,0.018949326592955056
0.296,0.003363881715019007,0.01257492341832702,0.00784441938677242,0.008527186706866866,0.04799354916876989,0.007948439957914341,0.011104080294735294,0.012722326173273365,0.006839527122408262,0.004656206165598591,0.004934447874257809,0.018986039770094033
0.297,0.0033574165489503606,0.012606832560417718,0.00784691316881546,0.008387586287521712,0.04855032247036896,0.0078023066956623794,0.01108738189207262,0.012746144948607568,0.006857026832687088,0.004576309136391594,0.004975218401951123,0.019021710944295465
0.298,0.0033506684959982882,0.012636209094237388,0.007848903282651672,0.008249403482325288,0.04910506800463809,0.007659094772234954,0.011070738695757172,0.012770541648697772,0.006874192084844104,0.004496682743776492,0.005016198482207883,0.019056245398060077
0.299,0.0033436557679420668,0.012663141356952156,0.007850423233706005,0.008112652355434668,0.04965773202721883,0.007518844056465045,0.011054132204548586,0.01279552232470383,0.0068910071004979175,0.00441738014376434,0.0050573037776071176,0.019089549076659357
0.3,0.0033363963600827693,0.012687723566008698,0.007851506958418993,0.007977346440303686,0.05020826346987867,0.0073815917310839155,0.01103754219587204,0.01282109116403551,0.0069074561738197305,0.00433845412277293,0.005098451515490219,0.01912152886083688
0.301,0.003328908024190483,0.012710055733698091,0.007852188757751519,0.007843498735374767,0.05075661374145301,0.007247372263152369,0.011020946798075517,0.012847250514429611,0.006923523706808941,0.00425995701898678,0.005139560574162673,0.019152092836554637
0.302,0.00332120824296197,0.012730243572968248,0.007852503231269002,0.00771112169895089,0.051302736526224066,0.0071162173776317525,0.011004322567434555,0.012874000913413793,0.0069391942451460745,0.0041819406467275095,0.005180551567187833,0.019181150560976523
0.303,0.003313314206038767,0.012748398394489161,0.007852485211953043,0.00758022724325904,0.05184658758041055,0.006988156034190689,0.010987644569710357,0.012901341123134485,0.0069544525145282705,0.004104456223866127,0.005221346925638071,0.019208613323948964
0.304,0.0033052427876245783,0.012764636995033924,0.007852169701881406,0.007450826727703719,0.052388124527481934,0.006863214407326449,0.010970886466050218,0.012929268170511743,0.006969283457395932,0.004027554302302569,0.005261870978164829,0.01923439440429481
0.305,0.0032970105257300146,0.01277908153728996,0.007851591808914149,0.007322930951295493,0.05292730665303324,0.006741415869866707,0.0109540206029962,0.01295777739266261,0.006983672269965082,0.003951284701531885,0.005302050028742567,0.0192584093202701
0.306,0.003288633603062633,0.01279185942126716,0.007850786684521403,0.007196550144227063,0.05346409469997121,0.006622780979909424,0.010937018106339652,0.012986862487513498,0.006997604439484997,0.003875696445308478,0.005341812431934529,0.01928057607354138
0.307,0.0032801278295703064,0.01280310314752324,0.007849789462884603,0.007071693958559738,0.05399845066477173,0.006507327471256119,0.010919848978531242,0.013016515569507659,0.007011065781642525,0.0038008377014089965,0.005381088665523066,0.019300815386025464
0.308,0.0032715086266357357,0.01281295017246967,0.007848635201397447,0.006948371457979329,0.05453033759555949,0.006395070247395082,0.01090248219933532,0.013046727230304575,0.007024042478032509,0.0037267557244817706,0.005419811400343775,0.0193190509288951
0.309,0.003262791012909673,0.012821542756047757,0.007847358822684688,0.006826591106586348,0.055059719392727066,0.0062860213790925604,0.010884885829405522,0.013077486604358852,0.007036521113608427,0.0036534968019577966,0.005457915567158269,0.019335209542999696
0.31,0.003253989591761335,0.012829027802081505,0.007845995058244138,0.006706360756703288,0.05558656061274879,0.006180190105647754,0.010867027116451633,0.013108781439253443,0.007048488714021516,0.0035811062029861875,0.005495338420392862,0.019349221449894597
0.311,0.0032451185403171642,0.012835556691629368,0.00784457839379993,0.006587687635708463,0.05611082627575057,0.006077582839861627,0.010848872603661958,0.013140598170645515,0.007059932782752419,0.003509628130345966,0.005532019598559835,0.01936102045263119
0.312,0.003236191600053444,0.012841285109668117,0.007843143016434897,0.006470578331933115,0.05663248167727964,0.005978203176762318,0.010830388240038088,0.013172922001661468,0.00707084133793539,0.003439105675275918,0.00556790118116682,0.01937054412543936
0.313,0.0032272220689035388,0.012846372865443491,0.007841722763548494,0.006355038779680594,0.057151492204607225,0.005882051906122521,0.010811539492288117,0.013205736986550254,0.0070812029487680745,0.0033695807751548458,0.005602927741911044,0.019377733991429454
0.314,0.0032182227948359668,0.012850983706813864,0.007840351073665467,0.006241074243444861,0.05766782315780993,0.005789127028795101,0.010792291457908611,0.013239026118372403,0.0070910067713895256,0.003301094173956156,0.005637046397949685,0.01938253568744652
0.315,0.003209206170854415,0.012855285128899515,0.007839060939101528,0.0061286893014231335,0.05818143957580425,0.005699423776881467,0.010772608979067066,0.013272771420467056,0.007100242584097719,0.003233685385393778,0.005670206855035401,0.019384899115221482
0.316,0.003200184131365556,0.01285944817733304,0.007837884860476702,0.006017887828433694,0.05869230606743073,0.005612934637733719,0.010752456756882628,0.0133069540414024,0.007108900821766493,0.003167392658671968,0.005702361448309681,0.01938477857797869
0.317,0.0031911681498565697,0.012863647246384452,0.007836854803054658,0.005908672978364522,0.05920038664758704,0.00552964938177654,0.01073179946570161,0.013341554353077309,0.007116972609310553,0.003102252946750812,0.005733465178558278,0.01938213290168468
0.318,0.0031821692378224743,0.012868059872205835,0.007836002154876408,0.005801047166294333,0.05970564457829719,0.005449555094117881,0.010710601866977278,0.01337655205160545,0.007124449794036124,0.0030383018770427294,0.005763475743749915,0.01937692554018447
0.319,0.0031731979448831023,0.01287286652140629,0.007835357686649079,0.0056950120504462454,0.06020804221450453,0.005372636209898889,0.010688828922382994,0.013411926260577616,0.007131324976705499,0.0029755737244621483,0.0057923535656979235,0.019369124663603618
0.32,0.0031642643600303636,0.012878250375133543,0.007834951513345009,0.005590568514150384,0.06070754085432535,0.005298874553314465,0.010666445905807502,0.01344765563626225,0.007137591541136645,0.0029141013867588538,0.005820061811705306,0.01935870322960976
0.321,0.003155378113948337,0.012884397108810052,0.007834813057462293,0.005487716647999117,0.061204100593510835,0.005228249380217857,0.0106434185139013,0.013483718474266973,0.007143243682154264,0.002853916362072752,0.005846566411081099,0.019345639037401993
0.322,0.003146548382350447,0.012891494667650891,0.007834971013895074,0.005386455732376514,0.06169768018391653,0.005160737424206743,0.010619712974862501,0.013520092817144964,0.007148276431707164,0.0027950487286530377,0.0058718360664499316,0.019329914764579653
0.323,0.0031377838902774727,0.012899733038075033,0.007835453316360359,0.005286784220535242,0.06218823689584395,0.005096312946074358,0.010595296155161768,0.013556756562391099,0.0071526856829690795,0.0027375271266887958,0.005895842259814839,0.019311517987276608
0.324,0.003129092917297423,0.012909304015108121,0.007836287105327694,0.005188699722383241,0.0626757263841776,0.005034947786496575,0.010570135663903867,0.013593687570235607,0.007156468212244012,0.002681378742201425,0.005918559253374015,0.01929044118409666
0.325,0.003120483303545081,0.012920400965863365,0.007837498697399648,0.005092198989132225,0.06316010255827696,0.004976611421813118,0.010544199954517558,0.013630863770610869,0.007159621698501969,0.0026266292929509162,0.00593996408513145,0.019266681724451257
0.326,0.0031119624565356632,0.012933218589175873,0.007839113556095848,0.004997277898951955,0.06364131745559269,0.004921271022748585,0.010517458423471257,0.01366826326864163,0.007162144740381642,0.0025733030163077614,0.005960036559372201,0.019240241841910824
0.327,0.0031035373586829665,0.012947952671449846,0.007841156263998046,0.004903931443767469,0.06411932111898594,0.0048688915159093285,0.010489881505735014,0.013705864447991045,0.007164036870518459,0.002521422659042259,0.005978759232091859,0.019211128593165927
0.328,0.003095214575448773,0.012964799838758485,0.007843650496213843,0.004812153717329769,0.06459406147778972,0.004819435647889597,0.010461440766742752,0.013743646071386941,0.007165298567086901,0.0024710094689853377,0.0059961173914812125,0.019179353803174704
0.329,0.003087000264049984,0.01298395730522467,0.007846618995113519,0.004721937904682807,0.06506548423279408,0.0047728640518271215,0.010432108990645188,0.013781587377660848,0.007165931262476654,0.002422083188519022,0.006012099033576272,0.01914493399706169
0.33,0.0030789001826543668,0.013005622617718683,0.00785008354629464,0.004633276273141194,0.06553353274553998,0.004729135316262334,0.010401860264679843,0.013819668174662752,0.007165937349048119,0.002374662049858129,0.006026694833192519,0.019107890319338728
0.331,0.0030709197000031146,0.01302999339693861,0.007854064955734865,0.004546160164884445,0.06599814793250182,0.004688206056171234,0.010370670059516834,0.013857868927469586,0.007165320181935396,0.002328762772087623,0.006039898110269917,0.019068248441042934
0.332,0.0030630638054051067,0.013057267074981865,0.007858583028099905,0.004460579991265593,0.06645926816488489,0.004650030986055104,0.010338515305465751,0.013896170841385147,0.007164084078885477,0.002284400559923627,0.006051704791761671,0.01902603845542243
0.333,0.003055337119050995,0.013087640629569384,0.007863656546176049,0.004376525228924428,0.06691682917488717,0.004614562994980083,0.010305374464451822,0.013934555939325905,0.007162234317140163,0.002241589104170406,0.006062113369204584,0.0189812947628342
0.334,0.0030477439025948638,0.013121310315144845,0.007869303251393914,0.004293984417787335,0.06737076396941706,0.004581753223466595,0.010271227597688561,0.013973007133282235,0.007159777127382692,0.0022003405838486954,0.0060711248521129095,0.01893405594553554
0.335,0.003040288069949639,0.013158471391126811,0.007875539825402398,0.004212945161025823,0.06782100275242257,0.004551551142133856,0.010236056428983375,0.014011508289622969,0.007156719684790581,0.002160665669971453,0.006078742717343974,0.018884364633048167
0.336,0.0030329731982423388,0.013199317847624464,0.007882381872640285,0.004133394127034212,0.0682674728571366,0.004523904632008939,0.010199844403609604,0.014050044288079669,0.007153070097263801,0.0021225735309416977,0.006084972854593054,0.018832267358761198
0.337,0.0030258025388767893,0.013244042128933894,0.007889843903839936,0.004055317053474522,0.068710098689634,0.00449876006641291,0.010162576742668301,0.014088601074318077,0.007148837390929033,0.0020860718395444384,0.006089823508186422,0.018777814408425374
0.338,0.003018779028653117,0.013292834855126558,0.007897939320386,0.003978698753424935,0.06914880168511323,0.004476062394335836,0.01012424049285281,0.014127165706074921,0.007144031493049573,0.0020511667815014045,0.006093305215355144,0.018721059661178215
0.339,0.003011905300893482,0.01334588454204455,0.007906680399444569,0.0039035231236580967,0.06958350027827746,0.004455755225206884,0.010084824571522672,0.014165726392899612,0.007138663212493498,0.0020178630655542725,0.00609543074118834,0.018662060423730618
0.34,0.0030051836965213586,0.013403377320037962,0.00791607827977851,0.003829773155066973,0.07001410988912975,0.004437780914955948,0.01004431980699304,0.014204272529591479,0.007132744217928444,0.001986163935040389,0.006096215010481256,0.01860087725834847
0.341,0.0029986162750381077,0.013465496651812224,0.007926142948178496,0.0037574309452488236,0.07044054292541377,0.004422080653251357,0.010002718973953663,0.01424279472346374,0.007126287013918027,0.0019560711809246956,0.006095675036709825,0.018537573805284008
0.342,0.0029922048253391413,0.013532423049789319,0.007936883226466117,0.0036864777132515716,0.0708627088028175,0.004408594551786255,0.009960016823947641,0.01428128481558778,0.007119304915093526,0.001927585156251418,0.0060938298483800175,0.018472216600341436
0.343,0.0029859508763171454,0.01360433379342579,0.007948306759055493,0.0036168938164802228,0.07128051398391749,0.0043972617334766245,0.009916210110862144,0.014319735896171616,0.007111812018568585,0.001900704791977928,0.006090700413016317,0.018404874888282033
0.344,0.0029798557072131288,0.013681402646978067,0.007960420001082009,0.0035486587697527087,0.07169386203669909,0.004388020422427332,0.009871297611410607,0.014358142314213096,0.007103823174756849,0.001875427614151222,0.006086309559066304,0.018335620432778327
0.345,0.0029739203576942858,0.013763799578257291,0.007973228207120249,0.003481751266485069,0.0721026537133442,0.004380808034517245,0.009825280140617816,0.014396499681554672,0.007095353956745238,0.0018517497623856054,0.006080681896004897,0.018264527323622118
0.346,0.0029681456376549186,0.013851690478957684,0.007986735420525352,0.003416149201976732,0.07250678704981606,0.004375561268448123,0.009778160562350218,0.01443480487145883,0.007086420628371467,0.0018296660095988553,0.006073843732921019,0.018191671781883908
0.347,0.002962532136748022,0.013945236887167875,0.008000944463446964,0.0033518296987587004,0.07290615748657814,0.004372216197094578,0.00972994379495581,0.014473056011821249,0.007077040111153411,0.0018091697829631366,0.006065822995861596,0.018117131963712358
0.348,0.0029570802336595513,0.014044595712690264,0.008015856927579276,0.0032887691339608255,0.07330065801056668,0.004370708358986353,0.009680636812087398,0.014511252473143176,0.007067229950216413,0.0017902531860259274,0.0060566491441953725,0.018040987763451585
0.349,0.002951790105137876,0.014149918965804281,0.008031473165720797,0.00322694316864936,0.07369017931829891,0.0043709728497523925,0.009630248638782165,0.014549394851394988,0.007057008279359777,0.0017729070219552087,0.006046353086244646,0.01796332061674275
0.35,0.0029466617347910806,0.014261353490109567,0.008047792284224912,0.003166326779082838,0.07407460999975521,0.004372944413359775,0.009578790342865599,0.014587484945916213,0.007046393785396118,0.0017571208178624054,0.006034967094417634,0.017884213304264106
0.351,0.0029416949216652766,0.01437904070006791,0.008064812136429483,0.0031068942898329214,0.07445383674243607,0.004376557532989509,0.009526275021744355,0.01462552573250978,0.007035405671888128,0.0017428828501563174,0.006022524720058038,0.01780374975674614
0.352,0.0029368892886159634,0.014503116323831921,0.008082529317157913,0.0030486194087173783,0.07482774455478433,0.0043817465214050335,0.00947271778465336,0.014663521331903502,0.0070240636223976,0.0017301801708819186,0.0060090607082113135,0.017722014861871055
0.353,0.0029322442904805087,0.014633710151914187,0.008100939158380314,0.002991475263494558,0.07519621700799478,0.004388445610686834,0.009418135730427183,0.014701476973774472,0.007012387763352867,0.001718998634999576,0.005994610912489576,0.01763909427363025
0.354,0.0029277592220541466,0.014770945792220457,0.0081200357261121,0.0029354344402708196,0.07555913649510383,0.004396589041224166,0.009362547920875127,0.01473939895656092,0.007000398626634977,0.001709322928562436,0.005979212210199625,0.017555074224674408
0.355,0.0029234332258668808,0.01491494043194552,0.008139811818613427,0.002880469023572091,0.0759163845061517,0.004406111149869273,0.00930597534985704,0.014777294603315583,0.006988117111979909,0.0017011365977517357,0.005962902417882293,0.017470041342149648
0.356,0.002919265299756471,0.015065804606808227,0.008160258965941972,0.002826550638028374,0.07626784191813114,0.004416946457169031,0.009248440908184871,0.014815172213879044,0.0069755644492912735,0.0016944220787314048,0.005945720207396922,0.01738408246746531
0.357,0.0029152543042342605,0.015223641978080559,0.008181367430905185,0.002773650491617812,0.07661338929838227,0.004429029753592342,0.009189969344511061,0.01485304101366519,0.0069627621609528595,0.001689160728284172,0.005927705022671799,0.017297284480382362
0.358,0.0029113989696451974,0.015388549117845174,0.00820312621145438,0.0027217394204158197,0.07695290722005743,0.004442296184668043,0.009130587222403083,0.014890911099351353,0.006949732024224278,0.0016853328551905433,0.005908896997229454,0.01720973412775228
0.359,0.002907697903129138,0.015560615302895875,0.008225523044560604,0.002670787934794013,0.07728627658825293,0.004456681334939374,0.009070322873833464,0.014928793381756254,0.00693649603380024,0.0016829177523093426,0.005889336872586292,0.01712151785718454
0.36,0.002904149595395769,0.01573992231767259,0.008248544411612985,0.0026207662670125103,0.07761337897536756,0.004472121310631444,0.009009206349329293,0.014966699526173974,0.006923076364617518,0.0016818937293153603,0.005869065917620903,0.01703272165588343
0.361,0.0029007524273297193,0.01592654426659217,0.00827217554538668,0.002571644420147506,0.07793409696419933,0.004488552820920523,0.008947269365026942,0.015004641890417014,0.006909495335001992,0.001682238146047716,0.005848125849005285,0.016943430894870933
0.362,0.002897504676445524,0.016120547396098486,0.008296400438637306,0.002523392218293299,0.0782483144972406,0.004505913257688896,0.00888454524687675,0.015042633460811092,0.006895775370257391,0.001683927446422765,0.005826558752796779,0.016853730178794775
0.363,0.002894404523213348,0.016321989926711876,0.008321201854386923,0.0024759793579734765,0.07855591723059063,0.004524140773645088,0.00882106887224543,0.015080687786379943,0.00688193896680328,0.0016869371928675513,0.005804407007294881,0.016763703201501792
0.364,0.0028914500572748384,0.01653092189531097,0.008346561337971384,0.0024293754606897816,0.07885679289088124,0.004543174358685618,0.00875687660916891,0.015118818911455919,0.006868008656969621,0.0016912421012328471,0.005781713207275496,0.016673432607534906
0.365,0.0028886392835647816,0.016747385007830885,0.008372459230922377,0.00238355012653045,0.07915083163360578,0.004562953914371819,0.00869200625350877,0.015157041306946926,0.006854006974549056,0.0016968160761473275,0.005758520089723156,0.016582999859689408
0.366,0.0028859701283507643,0.016971412502510826,0.008398874686759936,0.0023384729887538655,0.07943792640122635,0.004583420326394758,0.008626496964257041,0.015195369800479556,0.006839956421198322,0.0017036322467756891,0.005734870461186416,0.016492485112744686
0.367,0.0028834404452018846,0.017203029023772083,0.008425785688769066,0.00229411376925911,0.07971797327937372,0.004604515534901989,0.008560389197218963,0.015233819505620213,0.0068258794337691464,0.0017116630029436178,0.005710807126880273,0.01640196709347266
0.368,0.002881048020898265,0.017442250506757608,0.008453169069824438,0.002250442334851723,0.07999087184935248,0.004626182602560389,0.008493724637286827,0.015272405750351579,0.006811798352636983,0.0017208800315916307,0.005686372821652595,0.01631152298700965
0.369,0.0028787905812935537,0.017689084072526957,0.008481000534312643,0.0022074287542091626,0.0802565255350737,0.004648365780228826,0.008426546129504586,0.015311144004960631,0.0067977353910832206,0.0017312543535180829,0.005661610142922404,0.01622122832965643
0.37,0.0028766657971410112,0.01794352793388469,0.008509254682187885,0.002165043355444984,0.08051484194250416,0.004671010570113936,0.008358897609111657,0.015350049809489143,0.006783712605774759,0.001742756360369187,0.00563656148568831,0.01613115690813818
0.371,0.002874671289890557,0.01820557131182803,0.008537905035187993,0.0021232567841641754,0.08076573318974604,0.004694063786283127,0.008290824030742815,0.015389138700914127,0.00676975186837698,0.0017553558518314555,0.0056112689796948565,0.016041380665315172
0.372,0.0028728046374604274,0.01847519436262439,0.008566924065231315,0.002082040061896142,0.08100911622592984,0.0047174736124119,0.008222371296949384,0.015428426140257375,0.006755874838333579,0.0017690220729806218,0.0055857744288324565,0.01595196961229329
0.373,0.0028710633799836245,0.01875236811555777,0.00859628322500746,0.0020413646447879773,0.08124491313723155,0.004741189656647932,0.00815358618619814,0.015467927439857357,0.006742102936846771,0.0017837237517412845,0.005560119252834492,0.015862991746846685
0.374,0.002869445025526023,0.01903705442139867,0.008625952980765359,0.0020012024824394557,0.08147305143853406,0.004765163003482541,0.008084516280501003,0.015507657691065888,0.006728457322088677,0.0017994291364121324,0.005534344431324486,0.015774512978039584
0.375,0.0028679470557692217,0.01932920591164297,0.008655902847292972,0.001961526076762044,0.08169346434953349,0.004789346262530804,0.00801520989282946,0.015547631692656336,0.006714958865666592,0.0018161060332113096,0.00550849045025709,0.01568659705692364
0.376,0.002866566931646703,0.01962876596853246,0.008686101425076065,0.0019223085407463411,0.08190609105441503,0.004813693614133735,0.007945715994467669,0.015587863880247363,0.006701628130352131,0.0018337218437956264,0.005482597250787699,0.015599305513190746
0.377,0.0028653020989176494,0.01993566870582782,0.008716516439617463,0.0018835236570252495,0.08211087694455627,0.0048381608517093725,0.007876084142453296,0.01562836825705157,0.006688485349069144,0.0018522436027071773,0.005456704180596413,0.015512697597670861
0.378,0.0028641499936608297,0.020249838960269148,0.008747114782891986,0.0018451459361236164,0.08230777384399596,0.004862705420794842,0.0078063644072452806,0.015669158326250456,0.006675550405120172,0.0018716380147012575,0.005430849947682249,0.015426830230568735
0.379,0.0028631080476719676,0.020571192293634827,0.008777862556906284,0.0018071506742889788,0.082496740217561,0.004887286454736171,0.007736607300744869,0.01571024702528106,0.006662842813619003,0.0018918714919085608,0.005405072576632667,0.01534175795532559
0.38,0.0028621736937506446,0.020899635005291472,0.008808725119326469,0.0017695140108022565,0.0826777413615747,0.0049118648069955105,0.007666863704781791,0.01575164666230316,0.006650381704089128,0.0019129101907816176,0.005379409367361835,0.015257532897972412
0.381,0.0028613443708650045,0.02123506415510587,0.008839667131127698,0.0017322129846710384,0.08285074957704723,0.004936403080057733,0.007597184800160882,0.015793368855102276,0.006638185804183734,0.0019347200487711612,0.005353896856300466,0.015174204731814224
0.382,0.0028606175291828744,0.021577367596559694,0.008870652606207346,0.0016952255906106212,0.08301574432522774,0.004960865650930574,0.007527621996345594,0.01583542447266998,0.006626273424479347,0.0019572668206738293,0.005328570780012074,0.015091820647252651
0.383,0.002859990634955966,0.02192642401986919,0.008901644962887804,0.0016585308342188547,0.08317271236538216,0.004985218693240786,0.007458226861834351,0.015877823579686617,0.006614662444288951,0.0019805161145887667,0.005303466041204221,0.015010425326521233
0.384,0.0028594611752400735,0.02228210300487196,0.00893260707721736,0.0016221087862506782,0.08332164787465456,0.005009430195929791,0.007389051055265499,0.01592057538411472,0.0066033702984310124,0.002004433427417426,0.005278616677095647,0.014930060923078676
0.385,0.002859026662429966,0.022644265083411958,0.008963501337958334,0.0015859406358980077,0.08346255254988019,0.0050334699785476635,0.007320146257268619,0.015963688188096018,0.0065924139648807,0.002028984179839191,0.005254055830090011,0.014850767045381472
0.386,0.002858684638584294,0.02301276181093968,0.008994289703132005,0.0015500087429814295,0.08359543569123494,0.005057309703138434,0.0072515641030643,0.016007169342327005,0.00658180995322073,0.00205413375069701,0.005229815720697188,0.014772580744740686
0.387,0.002858432679513858,0.02338743584704664,0.009024933757972784,0.001514296688962463,0.08372031426759952,0.005080922882706864,0.007183356115799945,0.016051025204063537,0.0065715742938013775,0.0020798475107327067,0.0052059276226384486,0.014695536506964164
0.388,0.0028582683986056612,0.023768121044661195,0.009055394774133627,0.0014787893266882794,0.08383721296347815,0.005104284886259624,0.007115573640595829,0.016095261098877805,0.006561722527512016,0.002106090855619593,0.0051824218400733976,0.014619666247500725
0.389,0.0028581894503544275,0.0241546425476386,0.009085633769982183,0.0014434728287831971,0.08394616420725659,0.005127372940423229,0.0070482677792659855,0.0161398812862671,0.0065522696960615585,0.002132829238247852,0.0051593276868903476,0.014544999309835927
0.39,0.0028581935335726034,0.024546816896482245,0.00911561157182989,0.0014083347346022406,0.08404720818053533,0.005150166127655533,0.0069814893256768245,0.01618488892919652,0.006543230332663076,0.0021600282002245414,0.005136673468003462,0.014471562466930474
0.391,0.0028582783942499553,0.02494445214193961,0.00914528887593861,0.0013733639956620758,0.08414039280821857,0.005172645381082566,0.006915288701715601,0.016230286067643363,0.006534618453017881,0.002187653402555386,0.0051144864625988565,0.014399379925531657
0.392,0.002858441828035203,0.025347347966222324,0.009174626311148931,0.0013385510194648836,0.08422577372895003,0.005194793476003479,0.006849715893859791,0.016276073596192996,0.006526447546496633,0.002215670655480573,0.005092792909269754,0.014328473333220747
0.393,0.0028586816823144173,0.025755295811600642,0.009203584501971104,0.0013038877116321465,0.08430341424536565,0.005216595018114003,0.006784820390362965,0.016322251245711114,0.006518730567421836,0.002244045947441211,0.005071617992978019,0.014258861788093281
0.394,0.0028589958578638004,0.02616807901611746,0.009232124131972923,0.00126936751626873,0.0843733852535004,0.005238036428508189,0.006720651119096779,0.01636881756908616,0.006511479926367561,0.002272745473156312,0.005050985833774419,0.014190561851020956
0.395,0.0028593823100586326,0.02658547295615393,0.009260206007286647,0.001234985454482811,0.08443576515056658,0.005259105925532229,0.006657256386107396,0.016415769931000513,0.006504707481402942,0.0023017356607920366,0.005030919477202732,0.01412358756051839
0.396,0.002859839049626688,0.02700724519555765,0.00928779112003963,0.0012007381609929729,0.0844906397202684,0.005279793503581001,0.006594683814956969,0.01646310450165201,0.006498424529210476,0.0023309831982052925,0.005011440886305933,0.014057950450317849
0.397,0.002860364142942683,0.02743315564102772,0.009314840711495964,0.0011666239187593447,0.08453810199493002,0.005300090908946372,0.00653298028692868,0.016510816254312725,0.006492641796009954,0.0023604550582421646,0.0049925709351491395,0.013993659569812652
0.398,0.0028609557118678174,0.02786295670345542,0.00934131633468628,0.0011326426915809725,0.08457825209405725,0.0053199916128462655,0.006472191882176667,0.016558898966582858,0.0064873694282205855,0.002390118523068872,0.004974329403774925,0.013930721507550573
0.399,0.0028616119331431183,0.02829639346495062,0.009367179916304102,0.0010987961546062254,0.08461119703947291,0.0053394907817836176,0.006412363821898956,0.01660734522517724,0.006482616982801757,0.0024199412075110263,0.00495673497451098,0.013869140417948572
0.4,0.0028623310373467738,0.028733203851339043,0.009392393817656863,0.001065087722706223,0.08463705054772344,0.005358585245400693,0.006353540411606015,0.016656146434073413,0.006478393417226227,0.002449891081376768,0.004939805229555387,0.013808918051377872
0.401,0.0028631113074247243,0.029173118809986468,0.009416920894472353,0.0010315225766629216,0.08465593280091885,0.005377273462003631,0.006295764985556562,0.016705292825853448,0.006474707079057446,0.0024799364907397746,0.00492355664976869,0.013750053787747445
0.402,0.0028639510768015512,0.029615862492876645,0.009440724555375172,0.000998107687124292,0.08466797019747747,0.0053955554819335805,0.006239079852440276,0.01675477347607951,0.0064715656951230775,0.0025100461781580275,0.004908004614602903,0.013692544673696913
0.403,0.0028648487270774964,0.03006115244492189,0.009463768818860236,0.0009648518362793154,0.08467329508441261,0.005413432908956581,0.006183526242401884,0.016804576320551188,0.0064689763602954085,0.0025401893018038514,0.004893163403095604,0.013636385463491475
0.404,0.002865802685320107,0.03050869979751496,0.009486018368596973,0.000931765637205263,0.08467204547285706,0.005430908859838701,0.006129144255516209,0.016854688175305388,0.0064669455259024865,0.0025703354534801983,0.004879046195854458,0.013581568663685994
0.405,0.0028668114209665398,0.030958209467345437,0.009507438606897942,0.0008988615508391428,0.08466436473851399,0.005447987922269069,0.006075972811833149,0.016905094759241145,0.006465478987803603,0.002600454675496859,0.004865665077958976,0.013528084581590917
0.406,0.0028678734423631643,0.03140938036050366,0.009527995706186137,0.0008661539005253595,0.08465040130869306,0.005464676111291905,0.006024049603112635,0.016955780719277506,0.006464581874171919,0.002630517476378901,0.004853031042715881,0.01347592137753073
0.407,0.002868987292979291,0.03186190558187766,0.009547656658303087,0.000833658884093729,0.08463030833756821,0.0054809808244079584,0.0059734110463632115,0.017006729657975513,0.00646425863303513,0.0026604948453804594,0.0048411539962206485,0.013425065120839052
0.408,0.0028701515473391706,0.03231547264983084,0.009566389321512915,0.000801394583426231,0.08460424337126925,0.005496910795503776,0.005924092239286032,0.01705792416357429,0.006464513019631789,0.002690358265782091,0.004830042762694925,0.013375499849486194
0.409,0.0028713648067202773,0.03276976371616256,0.009584162465071943,0.0007693809714760632,0.08457236800437139,0.005512476047762702,0.005876126917710506,0.017109345842407402,0.00646534808364985,0.0027200797269587513,0.004819705090583153,0.013327207633186717
0.41,0.0028726256946671916,0.03322445579141618,0.009600945811251859,0.0007376399167067953,0.08453484752927952,0.005527687845705034,0.005829547415090466,0.01716097535367718,0.006466766156429018,0.0027496317352162804,0.004810147659399778,0.013280168639788606
0.411,0.002873932852370199,0.03367922097569624,0.009616710074730788,0.0007061951849214761,0.084491850579946,0.005542558646497548,0.00578438462411415,0.01721279244656964,0.006468768838228794,0.002778987323407152,0.004801376087321284,0.013234361204704299
0.412,0.0028752849339565125,0.0341337266952665,0.009631426999297239,0.0006750724384515109,0.08444354877134296,0.005557102050664625,0.0057406679604711615,0.01726477599968849,0.006471356985686236,0.002808120059352854,0.004793394939517117,0.013189761903107406
0.413,0.002876680601739738,0.03458763594530461,0.009645069391838667,0.0006442992326739419,0.08439011633614334,0.005571332752324345,0.005698425328816906,0.01731690406277307,0.006474530699608422,0.002837004053120443,0.004786207737213759,0.01314634562458586
0.414,0.002878118521469342,0.035040607539258764,0.009657611153604116,0.000613905009824337,0.08433172976013774,0.005585266489064751,0.0056576830909795765,0.017369153900644314,0.006478289313260721,0.0028656139632215055,0.004779816967488586,0.013104085649910006
0.415,0.0028795973576160178,0.03549229636526374,0.009669027308736049,0.000583921090071361,0.0842685674179831,0.005598919991570207,0.005618466036464162,0.017421502039302313,0.006482631381318816,0.0028939250018195847,0.004774224093793645,0.013062953729543466
0.416,0.0028811157687213852,0.03594235365003177,0.009679294030059833,0.000554380659818542,0.08420080921089337,0.005612310933105656,0.005580797355316596,0.01747392431408394,0.006487554669649402,0.0029219129390442218,0.00476942956721116,0.013022920163500724
0.417,0.0028826724028324763,0.0363904272305628,0.009688388662106215,0.0005253187571990552,0.08412863620781853,0.005625457878965804,0.0055446986134130094,0.017526395919777445,0.006493056146074809,0.0029495541065146834,0.004765432838440335,0.012983953882145079
0.418,0.002884265893033931,0.036836161833947396,0.009696289741332237,0.0004967722547307224,0.08405223029153333,0.00563838023599527,0.005510189730231653,0.017578891462575866,0.00649913197226351,0.0029768254001754837,0.004762232370509295,0.012946022527527207
0.419,0.0028858948530844286,0.03727919936548643,0.009702977013508158,0.0004687798391006753,0.08397177381090151,0.005651098202283107,0.005477288959151065,0.017631385013726714,0.006505777496873733,0.003003704282542251,0.004759825652199317,0.01290909253488358
0.42,0.0028875578731591967,0.03771917920533203,0.009708431448256023,0.00044138198805208586,0.08388744924040749,0.00566363271712937,0.005446012870302081,0.017683850164699262,0.006512987250062145,0.003030168784452841,0.004758209212163625,0.012873129213940158
0.421,0.002889253515698471,0.0381557385138514,0.0097126352507564,0.0004146209443490541,0.0837994388478535,0.005676005411370684,0.005416376335986258,0.017736260083644647,0.006520754939454291,0.003056197506414928,0.004757378633722221,0.012838096829695337
0.422,0.0028909803113633557,0.03858851254591227,0.00971557187067331,0.000388540686799974,0.08370792437090949,0.005688238558136668,0.00538839251865983,0.017788587572870725,0.006529073447656934,0.003081769619636733,0.004757328570318173,0.012803958682380503
0.423,0.0028927367551053454,0.039017134974273844,0.009717226008375535,0.00036318689832365243,0.08361308670298143,0.005700355024092284,0.005362072861469852,0.017840805126996446,0.006537934831373891,0.003106864866821545,0.004758052761627825,0.012770677186308423
0.424,0.0028945213023619317,0.039441238222234505,0.009717583618554423,0.0003386069310453879,0.0835151055886383,0.005712378221205964,0.005337427081316711,0.01789288499139188,0.006547330322166977,0.0031314635628001807,0.004759544050324756,0.012738213947321168
0.425,0.00289633236539616,0.039860453805639025,0.009716631911355345,0.00031484976841245765,0.08341415932861293,0.005724332059071797,0.005314463164404508,0.017944799220456182,0.006557250328884641,0.003155546595069903,0.004761794399503981,0.012706529838554402
0.426,0.0028981683098018903,0.04027441268428838,0.009714359351153796,0.00029196598432110546,0.0833104244941833,0.005736240897806859,0.005293187364227602,0.017996519735245683,0.006567684441764628,0.0031790954243040713,0.004764794910779471,0.012675585074256706
0.427,0.0029000274511990047,0.04068274562272631,0.00971075565311933,0.0002700076992505079,0.08320407565057536,0.005748129501541802,0.005273604201928432,0.018048018379944526,0.006578621438202937,0.0032020920848925853,0.004768535843074081,0.01264533928143894
0.428,0.0029019080521443022,0.04108508356030122,0.00970581177772144,0.0002490285334024952,0.08309528508893067,0.005760022992523873,0.005255716468950354,0.018099266976673353,0.006590049290168836,0.0032245191855674207,0.004773006632124676,0.012615751569165608
0.429,0.0029038083192842144,0.0414810579903263,0.009699519923338546,0.0002290835568480884,0.08298422256636165,0.005771946805855065,0.005239525231901912,0.01815023737815966,0.006601955173236821,0.0032463599101595843,0.004778195910726291,0.01258678059532881
0.43,0.0029057264007746123,0.04187030134809138,0.009691873517134205,0.00021022923668308395,0.08287105505367635,0.005783926644891609,0.005225029839547908,0.01820090151784676,0.006614325477203366,0.0032675980185244103,0.0047840915297391534,0.012558384630773202
0.431,0.0029076603839902635,0.042252447407414816,0.009682867204367413,0.00019252338119535526,0.08275594649048831,0.005795988437332402,0.0052122279318467316,0.018251231457092308,0.006627145818257221,0.0032882178476626635,0.004790680579882013,0.012530521620685735
0.432,0.002909608293541739,0.04262713168535811,0.00967249683630754,0.00017602508104667112,0.08263905754761051,0.005808158292021772,0.005201115450958571,0.01830119942919599,0.0066404010526720895,0.0033082043130562523,0.004797949414333748,0.012503149243238516
0.433,0.0029115680896113372,0.042993991854653905,0.009660759456924167,0.00016079464747216168,0.08252054539681153,0.005820462456484519,0.005191686654151118,0.018350777880090565,0.006654075291986464,0.0033275429102295677,0.004805883672161636,0.012476224965571629
0.434,0.002913537666613555,0.04335266816332397,0.0096476532885137,0.00014689354750193842,0.08240056348811955,0.005832927275198496,0.00518393412852877,0.01839993950561325,0.0066681519196275674,0.0033462197165399486,0.004814468302588232,0.012449706097302223
0.435,0.002915514852181672,0.043702803860893535,0.009633177716408417,0.00013438433621267343,0.08227926133486345,0.0058455791485950565,0.005177848807512629,0.018448657285331974,0.006682613608927264,0.00336422139319303,0.004823687590099886,0.012423549841819197
0.436,0.0029174974064805842,0.04404404563054029,0.00961733327289244,0.0001233305860226644,0.0821567843065636,0.005858444492764426,0.005173419989005475,0.01849690451293754,0.006697442342470164,0.0033815351874712024,0.004833525180391016,0.012397713345653096
0.437,0.0029194830218452856,0.04437604402643989,0.00960012162042541,0.00011379681305180104,0.08203327342969112,0.005871549699832956,0.0051706353551874695,0.018544654823235834,0.0067126194327085725,0.003398148935156978,0.004843964107131761,0.012372153746201663
0.438,0.0029214693227419693,0.044698453915481946,0.009581545534249647,0.00010584840057653256,0.08190886519625877,0.005884921098971541,0.0051694809939015094,0.0185918822157818,0.006728125543774241,0.0034140510631286303,0.004854986819542545,0.01234682821805977
0.439,0.002923453866043677,0.045010934922438996,0.00956160888443367,9.955151961734657e-05,0.08178369138021131,0.005898584917987896,0.00516994142160067,0.018638561075185665,0.006743940714411543,0.0034292305921038847,0.004866575210755369,0.012321694018164773
0.44,0.0029254341416056063,0.04531315187759332,0.009540316617387532,9.497304670122713e-05,0.08165787886163389,0.005912567245449994,0.005171999607843592,0.018684666188098706,0.006760044381949504,0.003443677139509151,0.0048787106469371086,0.012296708529933125
0.441,0.002927407573118044,0.04560477526578398,0.009517674736872903,9.218047884496342e-05,0.08153154945886446,0.005926893993286697,0.00517563700133574,0.018730172756862395,0.006776415407220766,0.0034573809224563,0.004891373997145659,0.01227182930653276
0.442,0.0029293715192091584,0.0458854816758392,0.009493690284520297,9.124184580914126e-05,0.081404819768642,0.005941590859819063,0.005180833557524157,0.018775056409786203,0.006793032100326768,0.003470332760815522,0.004904545663886116,0.01224701411340771
0.443,0.0029313232747667766,0.04615495424939825,0.009468371319856242,9.222561967844528e-05,0.0812778010144234,0.005956683293192786,0.0051875677677593775,0.018819293208004913,0.006809872247145069,0.003482524080382143,0.004918205614331765,0.01222222097014565
0.444,0.0029332600724482887,0.04641288312818438,0.009441726899834248,9.52006218310709e-05,0.0811505989029575,0.005972196455203692,0.005195816690038247,0.018862859648858487,0.0068269131364807134,0.0034939469161483455,0.004932333412173303,0.012197408191754891
0.445,0.002935179084350292,0.04665896589884452,0.009413767057853267,0.000100235927367299,0.08102331348913551,0.005988155185526974,0.00520555598133438,0.018905732665740107,0.006844131587778101,0.003504593915705839,0.004946908250058807,0.012172534429395112
0.446,0.0029370774238129393,0.04689290803449208,0.009384502782235236,0.00010740076707365302,0.08089603904905592,0.006004583966373009,0.00521675993151037,0.018947889624371345,0.006861503979329949,0.0035144583428179366,0.004961908982584378,0.012147558710586951
0.447,0.0029389521473365677,0.04711442333205845,0.009353945994123529,0.00011676442700440038,0.0807688639611443,0.006021506887599122,0.005229401498791093,0.018989308315484562,0.0068790062769424525,0.003523534081205129,0.004977314159790184,0.012122440478909093
0.448,0.0029408002565891786,0.04732323434448319,0.009322109524764224,0.00012839614576725235,0.08064187059504639,0.006038947612310101,0.005243452346763079,0.019029966943922966,0.0068966140630349814,0.0035318156385859625,0.004993102061109924,0.01209713963317491
0.449,0.0029426187004840073,0.047519072806678726,0.009289007092147465,0.00014236500960598927,0.08051513520788271,0.0060569293429833,0.005258882882851901,0.019069844114211722,0.006914302566160814,0.003539298151006816,0.005009250729714962,0.012071616566062815
0.45,0.002944404377308253,0.047701680054119816,0.009254653277016243,0.00015873984537956377,0.08038872784735311,0.006075474788156468,0.005275662298217603,0.01910891881270015,0.006932046690929965,0.003545977387483688,0.005025738007187664,0.012045832202156895
0.451,0.0029461541368868893,0.04787080743285093,0.009219063498286061,0.0001775891115443776,0.08026271226114269,0.006094606129716099,0.00529375860899771,0.01914717038640795,0.006949821048301571,0.003551849754969001,0.005042541568452058,0.012019748035339142
0.452,0.0029478647827682514,0.04802621669968427,0.009182253987950579,0.000198980787253632,0.08013714581211841,0.006114344990820292,0.005313138698819566,0.019184578518721955,0.006967599986200056,0.003556912303647587,0.0050596389568859975,0.011993326165459969
0.453,0.0029495330744208096,0.0481676804113828,0.009144241765568146,0.00022298225969532526,0.08001207939891125,0.006134712404484172,0.0053337683624988304,0.0192211232020982,0.006985357620402089,0.0035611627325584185,0.005077007619540301,0.011966529334196438
0.454,0.002951155729433667,0.04829498230168356,0.009105044612430193,0.0002496602097987362,0.07988755738162101,0.006155728782848444,0.005355612350838422,0.019256784707941132,0.007003067865642636,0.003564599395532924,0.005094624942397297,0.011939320959987306
0.455,0.002952729425715624,0.04840791764509555,0.009064681045507124,0.00027908049644762917,0.07976361751250048,0.006177413887143733,0.005378634416440686,0.019291543553856094,0.007020704466896575,0.0035672213074369784,0.005112468285609666,0.01191166517191426
0.456,0.0029542508036868847,0.04850629360647882,0.009023170291255947,0.00031130803934663017,0.07964029087151872,0.006199786798357244,0.005402797360443631,0.019325380468493674,0.007038241030804499,0.003569028150700678,0.005130515018664683,0.011883526842385438
0.457,0.002955716468453187,0.04858992957547702,0.008980532259359271,0.0003464067006951903,0.07951760180667722,0.0062228658886063735,0.005428063080088232,0.019358276354218204,0.007055651057224199,0.0035700202821161175,0.005148742555415905,0.011854871618472169
0.458,0.0029571229919466225,0.04865865748494382,0.008936787516449387,0.0003844391658309616,0.0793955678789539,0.006246668793226996,0.0054543926170183285,0.019390212247833927,0.007072907970899249,0.0035701987398785305,0.005167128388915925,0.01182566595174838
0.459,0.0029584669150143866,0.04871232211256521,0.00889195725985667,0.00042546682301094173,0.07927419981189006,0.00627121238359327,0.005481746206208559,0.019421169279593555,0.007089985153237754,0.0035695652508419473,0.0051856501259753725,0.0117958771264797
0.46,0.00295974474943871,0.04875078136492026,0.008846063291411204,0.00046954964250481567,0.07915350144612485,0.006296512740704975,0.0055100833254107025,0.019451128630700608,0.007106855974186099,0.0035681222379585565,0.005204285521370063,0.011765473286008889
0.461,0.0029609529798776766,0.04877390654324679,0.008799127991319499,0.0005167460551813788,0.07903346969949691,0.00632258512960994,0.005539362745005379,0.019480071489505226,0.007123493824169521,0.0035658728278716834,0.005223012511622158,0.011734423457194814
0.462,0.002962088065725054,0.04878158259019361,0.00875117429212981,0.0005671128307758999,0.07891409453352932,0.006349443974769202,0.005569542578143545,0.019507979006586604,0.007139872146061823,0.0035628208586345675,0.005241809248290287,0.011702697572792532
0.463,0.0029631464428962868,0.048773708316843446,0.008702225652785974,0.0006207049560331091,0.07879535892716796,0.006377102836512797,0.005600580331058831,0.019534832248915973,0.007155964467144943,0.0035589708875294166,0.005260654130713978,0.011670266491717388
0.464,0.002964124525557727,0.04875019660927987,0.008652306032751514,0.0006775755129268993,0.0786772388586364,0.0064055743887679005,0.005632432953426741,0.01956061215330106,0.0071717444310227365,0.0035543281989632047,0.005279525838166738,0.011637102017212964
