time,RGLTMED,RRF,RADDLONG,RBF,RTA,RGM
7.52,0.0034839969906100437,0.008918743887532101,0.024303573832495238,0.006295197902674806,0.0016998792536258055,0.0014317324359327214
7.529999999999999,0.0036484487216785527,0.009173949730280835,0.021114702857824887,0.0064641821006492985,0.00134016468841465,0.0008465885921283119
7.539999999999999,0.0038115164587115323,0.009428372665239831,0.017929524537289118,0.006632820289627244,0.0009788805207688954,0.00026386124935213974
7.549999999999999,0.003973072476926262,0.009681822931393174,0.01474965541469094,0.006800998596336094,0.0006161710293294926,0.00031613076668283584
7.559999999999999,0.0041329904455427915,0.009934111458347866,0.011576699224983144,0.006968603979443122,0.00025218084366888943,0.0008930727994364793
7.5699999999999985,0.00429114564017846,0.010185050186260078,0.008412244827611952,0.007135524443789614,0.0001129452077629436,0.0014666547998771029
7.579999999999998,0.004447415154129027,0.010434452385778675,0.005257864180754561,0.007301649254032999,0.0004790622458423825,0.002036571756279503
7.589999999999998,0.004601678107975598,0.010682132976957465,0.002115110360873429,0.00746686914693858,0.0008460254846913835,0.0026025241145818017
7.599999999999998,0.004753815856951993,0.010927908846087147,0.0010144843680880626,0.007631076541549982,0.0012136903709190857,0.0031642181884185727
7.609999999999998,0.0049037121955005465,0.011171599159399285,0.0041294104316457235,0.007794165746457595,0.001581912717824483,0.003721366557957103
7.619999999999997,0.005051253558438566,0.01141302567259085,0.007228182763738709,0.007956033163380385,0.0019505488342251738,0.004273688456667388
7.629999999999997,0.005196329218151866,0.011652013035104108,0.010309342563733512,0.008116577486280547,0.002319455647600112,0.0048209101451605636
7.639999999999997,0.005338831477224406,0.011888389088077617,0.013371458987631365,0.008275699895242492,0.0026884908212532316,0.005362765271238407
7.649999999999997,0.0054786558559060715,0.012121985154870334,0.016413130769806005,0.008433304244363423,0.0030575128652190788,0.005898995215307916
7.659999999999997,0.005615701273818943,0.01235263632305717,0.019432987771784455,0.008589297242915411,0.0034263812406424474,0.006429349420325251
7.669999999999996,0.0057498702253075285,0.012580181716795471,0.02242969245483203,0.008743588629042462,0.0037949564573750622,0.006953585705437345
7.679999999999996,0.005881068947846135,0.012804464758459897,0.02540194127346014,0.008896091335249528,0.004163100164548356,0.007471470562487781
7.689999999999996,0.006009207582920851,0.01302533341843578,0.028348465987432958,0.009046721644928315,0.004530675233908381,0.00798277943455437
7.699999999999996,0.006134200328802173,0.013242640451950595,0.03126803489033212,0.009195399339155556,0.004897545835744932,0.008487296975696995
7.7099999999999955,0.006255965584619424,0.013456243621813694,0.03415945395315817,0.0093420478330034,0.005263577507314454,0.00898481729111456
7.719999999999995,0.006374426085145031,0.01366600590592755,0.03702156788176194,0.009486594300621539,0.00562863721373256,0.009475144156931325
7.729999999999995,0.006489509025702194,0.013871795688428662,0.03985326108711876,0.009628969788376393,0.005992593401376562,0.009958091218850067
7.739999999999995,0.006601146176633158,0.014073486933315478,0.042653458567602553,0.009769109315352551,0.00635531604388212,0.010433482168924054
7.749999999999995,0.006709273986821459,0.014270959339445747,0.045421126702492945,0.00990695196054236,0.006716676680847967,0.010901150899721426
7.759999999999994,0.006813833675865349,0.01446409847589541,0.04815527395596427,0.010042440936104057,0.007076548449391202,0.01136094163520273
7.769999999999994,0.0069147713146509426,0.014652795896945334,0.050854951490795004,0.010175523646199818,0.007434806108732789,0.011812709037726138
7.779999999999994,0.007012037894240738,0.014836949236422682,0.05351925369104289,0.010306151731141416,0.007791326058042304,0.012256318290745933
7.789999999999994,0.007105589383126999,0.01501646228166625,0.0561473185929901,0.010434281096821232,0.00814598634782892,0.012691645156967324
7.799999999999994,0.00719538677297262,0.015191245027839303,0.05873832822377847,0.010559871929618297,0.00849866668522098,0.013118576011932472
7.809999999999993,0.007281396112984883,0.015361213713580752,0.06129150884730336,0.010682888697112928,0.008849248433516702,0.01353700785320289
7.819999999999993,0.007363588533066685,0.01552629083908798,0.06380613111707864,0.010803300135033979,0.009197614606409176,0.013946848285453794
7.829999999999993,0.007441940255887218,0.015686405167736724,0.0662815101359143,0.010921079220919342,0.00954364985729648,0.014348015481909204
7.839999999999993,0.007516432598021861,0.015841491712324556,0.0687170054224109,0.011036203135002176,0.00988724046409038,0.014740438122636207
7.849999999999992,0.007587051960333275,0.01599149170700425,0.07111202078454554,0.011148653208849085,0.01022827430994088,0.015124055310300411
7.859999999999992,0.007653789807800957,0.01613635256596021,0.07346600410101754,0.011258414862279987,0.010566640860307298,0.0154988164640749
7.869999999999992,0.007716642639053316,0.016276027829867153,0.0757784470115108,0.011365477529099265,0.010902231136837472,0.015864681192489672
7.879999999999992,0.007775611945910331,0.016410477101145498,0.07804888451761086,0.011469834572169288,0.01123493768856127,0.016221619146091475
7.889999999999992,0.007830704163295139,0.016539665968992635,0.08027689449678438,0.011571483188367399,0.01156465456094915,0.016569609850842475
7.899999999999991,0.007881930609904945,0.016663565925130852,0.08246209713251006,0.011670424303992634,0.011891277263420087,0.016908642523223147
7.909999999999991,0.007929307420039297,0.016782154271176613,0.08460415426427807,0.011766662461224302,0.012214702735902387,0.01723871586803035
7.919999999999991,0.007972855466973095,0.01689541401850341,0.08670276866176273,0.011860205696265934,0.012534829315057686,0.017559837859887024
7.929999999999991,0.00801260027824447,0.017003333781441015,0.08875768322801791,0.011951065409821727,0.012851556700778918,0.01787202550951791
7.939999999999991,0.00804857194321273,0.017105907664623846,0.09076868013698856,0.012039256230549843,0.013164785923575199,0.018175304615897933
7.94999999999999,0.008080805013232833,0.017203135145264774,0.09273557991093731,0.012124795872128497,0.013474419313460483,0.01846970950542685
7.95999999999999,0.008109338394792583,0.017295020951085295,0.0946582404435593,0.012207704984564725,0.013780360470962124,0.018755282759300353
7.96999999999999,0.008134215235968145,0.017381574934584226,0.09653655597459454,0.012288007000371633,0.01408251424085534,0.0190320749302273
7.97999999999999,0.008155482806570061,0.017462811944281873,0.09837045602164206,0.012365727976235216,0.014380786689210667,0.019300144249599704
7.989999999999989,0.008173192372367358,0.01753875169353715,0.1001599042746682,0.012440896430791376,0.014675085084316095,0.01955955632617863
7.999999999999989,0.008187399063786715,0.017609418627497517,0.10190489745844081,0.012513543179144779,0.014965317882005794,0.019810383837331625
8.00999999999999,0.008198161739490178,0.01767484178870061,0.10360546416785676,0.012583701164782588,0.015251394715892888,0.020052706213849174
8.019999999999989,0.00820554284524313,0.017735054681801077,0.10526166368087482,0.01265140528955676,0.015533226392964915,0.020286609319372706
8.029999999999989,0.008209608268491736,0.01779009513784933,0.10687358475351334,0.012716692242415973,0.01581072489495775,0.020512185125471406
8.039999999999988,0.008210427189070356,0.017840005178508454,0.1084413444011217,0.01277960032755859,0.016083803385880183,0.02072953138339784
8.049999999999988,0.008208071926454782,0.017884830880567835,0.10996508666989768,0.012840169292656554,0.016352376226020125,0.020938751293527184
8.059999999999988,0.008202617783971794,0.017924622241095135,0.11144498140240966,0.012898440157777122,0.01661635899272487,0.021139953173445313
8.069999999999988,0.008194142890371021,0.017959433043550868,0.11288122300068833,0.012954455045611674,0.01687566850821059,0.021333250125602794
8.079999999999988,0.008182728039157868,0.017989320725161434,0.11427402919029926,0.013008257013607505,0.017130222874619308,0.02151875970539973
8.089999999999987,0.008168456526075101,0.01801434624580635,0.11562363978874847,0.013059889888584647,0.017379941516506653,0.021696603590517196
8.099999999999987,0.008151413985109664,0.018034573958629233,0.11693031548163302,0.013109398104402517,0.01762474523091206,0.021866907252270393
8.109999999999987,0.008131688223394827,0.01805007148253379,0.11819433661009153,0.013156826543221315,0.017864556245131346,0.022029799629725292
8.119999999999987,0.008109369055375668,0.018060909576678223,0.11941600197326582,0.013202220380881003,0.018099298282277188,0.022185412807287714
8.129999999999987,0.008084548136605807,0.01806716201703836,0.12059562764959293,0.013245624936894167,0.01832889663467522,0.0223338816964415
8.139999999999986,0.008057318797543102,0.018068905475077147,0.12173354584076267,0.01328708552951616,0.018553278245104513,0.022475343722291072
8.149999999999986,0.008027775877708358,0.018066219398539356,0.1228301037420968,0.01332664733631886,0.018772371795852043,0.022609938515563116
8.159999999999986,0.007996015560561016,0.01805918589438671,0.12388566244296054,0.013364355260659945,0.018986107805511954,0.022737807610737355
8.169999999999986,0.007962135209429084,0.018047889613894086,0.12490059586060878,0.013400253804412956,0.01919441873342098,0.022859094150990536
8.179999999999986,0.007926233204810158,0.018032417639935697,0.12587528971059028,0.01343438694730239,0.019397239091577312,0.022973942600639598
8.189999999999985,0.007888408783338895,0.018012859376495882,0.12681014051650366,0.013466798033165122,0.019594505563838658,0.023082498465764344
8.199999999999985,0.007848761878695137,0.01798930644043881,0.12770555466156464,0.013497529663428922,0.019786157132137456,0.023184908023683535
8.209999999999985,0.007807392964707196,0.017961852555560272,0.1285619474841254,0.013526623598060967,0.019972135209391246,0.023281318061944237
8.219999999999985,0.007764402900887658,0.017930593448921773,0.12937974241897374,0.013554120664196695,0.02015238377872867,0.023371875627451216
8.229999999999984,0.007719892780624972,0.017895626749435234,0.1301593701859272,0.013580060672616662,0.020326849538597414,0.02345672778631079
8.239999999999984,0.0076739637822433055,0.017857051888631417,0.13090126802692914,0.013604482342200934,0.02049548205326954,0.023536021394900807
8.249999999999984,0.007626717023134586,0.01781497000351106,0.1316058789925575,0.013627423232461994,0.020658233908208992,0.02360990288261254
8.259999999999984,0.0075782534171585465,0.0177694838413465,0.13227365127857493,0.013648919684237273,0.02081506086971435,0.023678518046642203
8.269999999999984,0.007528673535496552,0.017720697666273738,0.13290503761289224,0.01366900676860633,0.020965922048198922,0.023742011859139805
8.279999999999983,0.007478077471132291,0.017668717167489044,0.13350049469306827,0.013687718244082278,0.021110780064420517,0.023800528286953664
8.289999999999983,0.007426564707117069,0.0176136493688428,0.13406048267421128,0.013705086522114777,0.021249601217922857,0.023854210124146506
8.299999999999983,0.007374233988759862,0.017555602539617646,0.13458546470684357,0.013721142640933643,0.021382355656897167,0.023903198837407193
8.309999999999983,0.007321183199862766,0.01749468610630162,0.13507590652393664,0.013735916247751667,0.021509017548615825,0.023947634424437297
8.319999999999983,0.007267509243101942,0.0174310105652211,0.1355322760759443,0.013749435589325825,0.02162956524952979,0.023987655285345806
8.329999999999982,0.007213307924636176,0.017364687395962447,0.13595504321234259,0.013761727510847775,0.021743981474057112,0.024023398107036447
8.339999999999982,0.007158673843014229,0.01729582897555415,0.13634467940801645,0.0137728174631001,0.021852253461022278,0.024054997760528645
8.349999999999982,0.007103700282447968,0.017224548493388926,0.13670165753283314,0.013782729517776083,0.021954373136639165,0.024082587211118587
8.359999999999982,0.007048479110514653,0.017150959866850984,0.13702645166283198,0.013791486390820269,0.022050337272871708,0.024106297441255285
8.369999999999981,0.006993100680343934,0.01707517765759972,0.1373195369315615,0.013799109473608488,0.02214014763996656,0.024126257385970396
8.379999999999981,0.0069376537373360934,0.016997316988456017,0.13758138942016152,0.013805618871752785,0.022223811151936324,0.024142593880659407
8.389999999999981,0.006882225330454187,0.016917493460834772,0.13781248608477764,0.013811033451287978,0.022301340003772614,0.02415543162096624
8.39999999999998,0.006826900728136119,0.01683582307266477,0.13801330471976314,0.01381537089196896,0.02237275179917527,0.024164893134473602
8.40999999999998,0.006771763338877662,0.016752422136736642,0.13818432395489758,0.013818647747380886,0.022438069667598228,0.02417109876384638
8.41999999999998,0.0067168946365375294,0.016667407199418234,0.13832602328463103,0.013820879511540504,0.022497322369438317,0.02417416666101535
8.42999999999998,0.006662374090408116,0.016580894959664316,0.13843888312722077,0.01382208069164676,0.022550544388229912,0.024174212791923826
8.43999999999998,0.006608279100081766,0.01649300218822163,0.13852338491155258,0.01382226488661758,0.022597776008762612,0.02417135095129012
8.44999999999998,0.006554684935124365,0.016403845646902143,0.13858001118938004,0.013821444871021368,0.022639063380132496,0.024165692786763157
8.45999999999998,0.006501664679548359,0.0163135420077809,0.138609245770682,0.013819632683975326,0.022674458562871723,0.024157347831767692
8.46999999999998,0.00644928918105869,0.016222207772178535,0.13861157387986173,0.013816839722543101,0.022704019559439993,0.024146423546254403
8.479999999999979,0.006397627005030493,0.016129959189315306,0.13858748233055007,0.01381307683912776,0.022727810327464196,0.02413302536449689
8.489999999999979,0.006346744393167199,0.016036912174574203,0.13853745971674006,0.013808354442326453,0.02274590077517802,0.024117256749026365
8.499999999999979,0.006296705226780304,0.015943182227378602,0.1384619966178292,0.013802682600690494,0.02275836673858152,0.024099219249785156
8.509999999999978,0.006247570994624892,0.015848884348759015,0.13836158581493294,0.013796071148819576,0.022765289939973045,0.02407901256763991
8.519999999999978,0.0061994007652162765,0.0157541329587381,0.1382367225156118,0.013788529795212156,0.022766757927738378,0.02405673462153398
8.529999999999978,0.006152251163543423,0.015659041813695037,0.13808790458393397,0.013780068231293671,0.022762863997581144,0.02403248161873539
8.539999999999978,0.0061061763520858505,0.015563723923877299,0.13791563277255206,0.01377069624104866,0.022753707095665637,0.024006348127782132
8.549999999999978,0.006061228016033501,0.015468291471213784,0.13772041095323212,0.013760423810696561,0.02273939170435723,0.023978427153802207
8.559999999999977,0.0060174553526035745,0.015372855727558797,0.13750274634209197,0.013749261237880166,0.02272002771137135,0.02394881021590548
8.569999999999977,0.005974905064344872,0.015277526973471602,0.13726314971573025,0.01373721923987403,0.0226957302631934,0.023917587426334805
8.579999999999977,0.005933621356318168,0.01518241441761435,0.13700213561441554,0.013724309060355593,0.02266661960363219,0.02388484757104381
8.589999999999977,0.005893645937038467,0.015087626116829945,0.1367202225284992,0.013710542574306022,0.022632820898340386,0.02385067819134575
8.599999999999977,0.00585501802305963,0.014993268896937105,0.13641793306417188,0.01369593239061814,0.02259446404609296,0.023815165666251508
8.609999999999976,0.005817774347073805,0.014899448274249409,0.13609579408462083,0.013680491951980801,0.022551683477570354,0.02377839529507745
8.619999999999976,0.0057819491693898006,0.014806268377790673,0.13575433682263935,0.013664235631582767,0.02250461794235336,0.023740451379855095
8.629999999999976,0.005747574292647423,0.014713831872150418,0.13539409696089486,0.013647178826139243,0.022453410284801877,0.023701417307023062
8.639999999999976,0.005714679079619138,0.014622239880910132,0.13501561467640955,0.013629338044698494,0.02239820720945647,0.023661375627839595
8.649999999999975,0.0056832904739457886,0.014531591910573889,0.13461943464632575,0.013610730992640742,0.022339159036581412,0.02362040813692605
8.659999999999975,0.0056534330236488895,0.014441985774945777,0.13420610601267824,0.013591376650245282,0.022276419448486837,0.023578595948334075
8.669999999999975,0.005625128907256406,0.014353517519901477,0.13377618230463315,0.013571295345185808,0.022210145227340376,0.023536019568512298
8.679999999999975,0.005598397962370633,0.014266281348502965,0.1333302213174492,0.013550508818323818,0.02214049598527857,0.023492758965527147
8.689999999999975,0.005573257716496263,0.014180369546410871,0.13286878494828028,0.013529040282197324,0.02206763388770246,0.02344889363387033
8.699999999999974,0.00554972341993549,0.014095872407566481,0.132392438989832,0.013506914471633503,0.021991723370660347,0.023404502654169324
8.709999999999974,0.005527808080545829,0.014012878160147742,0.13190175288371728,0.013484157685946067,0.02191293085319519,0.023359664747107337
8.719999999999974,0.005507522500147293,0.01393147289284219,0.131397299436083,0.013460797822216063,0.021831424445492388,0.02331445832085046
8.729999999999974,0.0054888753123624725,0.013851740481507138,0.1308796544986996,0.013436864399206038,0.02174737365362234,0.023268961511276446
8.739999999999974,0.00547187302167938,0.013773762516296917,0.1303493966191472,0.01341238857153445,0.021660949081640183,0.023223252214320065
8.749999999999973,0.005456520043541632,0.013697618229340002,0.12980710666391532,0.013387403133845757,0.021572322131791624,0.023177408109805318
8.759999999999973,0.005442818745289064,0.013623384423061536,0.129253367418203,0.013361942514834975,0.021481664703580743,0.023131506676209092
8.769999999999973,0.005430769487790617,0.013551135399273061,0.12868876316608927,0.01333604276109919,0.021389148892477703,0.023085625195869888
8.779999999999973,0.0054203706676304005,0.013480942889183344,0.1281138792546026,0.013309741510892327,0.02129494668907686,0.023039840750212523
8.789999999999973,0.005411618759727491,0.01341287598451499,0.1275293016450475,0.013283077957969115,0.021199229679556675,0.02299423020461322
8.799999999999972,0.005404508360286915,0.013347001069940238,0.12693561645475013,0.01325609280582015,0.021102168748337535,0.022948870182586147
8.809999999999972,0.005399032229989757,0.013283381757076839,0.12633340949223196,0.013228828212704016,0.021003933783870745,0.022903837029040135
8.819999999999972,0.005395181337337664,0.013222078820310651,0.12572326578874823,0.013201327727956512,0.020904693388513612,0.022859206762445124
8.829999999999972,0.005392944902077946,0.013163150134734212,0.12510576912909094,0.013173636220094183,0.020804614593450014,0.022815055015872977
8.839999999999971,0.005392310438651962,0.013106650616505981,0.12448150158449331,0.013145799797235748,0.020703862579601703,0.02277145696703761
8.849999999999971,0.005393263799625831,0.013052632165937786,0.12385104305038558,0.01311786572035833,0.020602600405443983,0.02272848725763385
8.859999999999971,0.005395789219073209,0.013001143613608266,0.12321497079166237,0.013089882309904937,0.020500988742595684,0.022686219902427515
8.86999999999997,0.005399869355884604,0.012952230669786015,0.12257385899801564,0.013061898846274771,0.02039918562000339,0.02264472818866611
8.87999999999997,0.00540548533697982,0.012905935877435524,0.12192827835174709,0.0130339654647486,0.020297346177483865,0.022604084566478253
8.88999999999997,0.005412616800400671,0.01286229856907215,0.12127879561031028,0.013006133045410468,0.020195622429324316,0.02256436053102157
8.89999999999997,0.005421241938259433,0.01282135482772295,0.1206259732056447,0.012978453098618975,0.020094163038569073,0.022525626497208847
8.90999999999997,0.00543133753951417,0.012783137452232323,0.11997036886212473,0.012950977646563626,0.019993113102549146,0.022487951667874297
8.91999999999997,0.005442879032536898,0.012747675927125224,0.11931253523464157,0.012923759101424851,0.019892613950142118,0.022451403896243314
8.92999999999997,0.005455840527436742,0.012714996397210585,0.11865301956800055,0.012896850140646544,0.0197928029511853,0.022416049543552984
8.93999999999997,0.005470194858099018,0.012685121647078001,0.11799236337851537,0.012870303579828477,0.019693813338403823,0.022381953332640748
8.949999999999969,0.005485913623903493,0.012658071085613292,0.11733110215845628,0.012844172243748297,0.01959577404215866,0.022349178198278627
8.959999999999969,0.005502967231093649,0.012633860735634658,0.11666976510383285,0.012818508836023925,0.019498809538270722,0.022317785134987944
8.969999999999969,0.005521324933784634,0.012612503228732119,0.11600887486580151,0.012793365807924869,0.0194030397091385,0.02228783304303326
8.979999999999968,0.005540954874616329,0.012594007805381677,0.11534894732576338,0.01276879522683785,0.01930857971833615,0.02225937857327134
8.989999999999968,0.005561824125073759,0.012578380320404842,0.1146904913940038,0.012744848644892193,0.019215539898854085,0.022232475971526888
8.999999999999968,0.005583898725509148,0.012565623253854264,0.1140340088315792,0.012721576968256591,0.01912402565512145,0.022207176923179927
9.009999999999968,0.005607143724910823,0.012555735727419548,0.11337999409510977,0.012699030327628397,0.01903413737892647,0.022183530398662436
9.019999999999968,0.005631523220473935,0.012548713526450296,0.11272893420418365,0.012677257950442247,0.01894597037932166,0.02216158250055602
9.029999999999967,0.0056570003970327475,0.012544549127679912,0.11208130863120658,0.01265630803531947,0.018859614826565455,0.022141376312958542
9.039999999999967,0.005683537566411643,0.012543231732706443,0.11143758921368947,0.012636227629260376,0.018775155710112623,0.022122951753761607
9.049999999999969,0.0057110962067429116,0.012544747307251407,0.1107982400890721,0.012617062508051372,0.01869267281062573,0.02210634543045945
9.059999999999969,0.005739637001787156,0.012549078626178618,0.110163717652184,0.012598857060324403,0.018612240685937125,0.022091590500088784
9.069999999999968,0.005769119880279663,0.012556205324216049,0.10953447053536444,0.012581654175674351,0.018533928670841422,0.022078716533874346
9.079999999999966,0.005799504055315655,0.012566103952287988,0.10891093961112958,0.01256549513721377,0.0184578008905409,0.022067749387128206
9.089999999999966,0.005830748063781389,0.012578748039332168,0.10829355801707236,0.012550419518921775,0.01838391628750446,0.022058711074927122
9.099999999999966,0.005862809805838552,0.012594108159444305,0.1076827512024025,0.01253646508811907,0.018312328661440693,0.022051619654075122
9.109999999999966,0.005895646584475231,0.012612152004159325,0.1070789369952138,0.012523667713369938,0.018243086722031232,0.02204648911184935
9.119999999999964,0.005929215145143282,0.012632844459650553,0.1064825256892505,0.012512061278076445,0.018176234154021004,0.02204332926202167
9.129999999999963,0.005963471715504604,0.012656147688615412,0.10589392014863978,0.012501677599994803,0.01811180969421387,0.02204214564864083
9.139999999999963,0.005998372045306631,0.012682021216622997,0.10531351592874189,0.01249254635687229,0.01804984721987148,0.02204293945804466
9.149999999999965,0.006033871446402372,0.012710422022717703,0.10474170141093403,0.01248469501837452,0.017990375847958887,0.022045707439546994
9.159999999999965,0.006069924832924962,0.012741304634091986,0.10417885794882488,0.012478148784445135,0.01793342004462688,0.022050441835215814
9.169999999999964,0.006106486761621985,0.012774621224649672,0.10362536002315434,0.012472930530211607,0.017878999744273587,0.022057130319134685
9.179999999999964,0.006143511472353963,0.012810321717274812,0.10308157540252467,0.01246906075752346,0.017827130477487962,0.022065755946525312
9.189999999999964,0.006180952928768948,0.012848353889600704,0.10254786530714316,0.012466557553188613,0.01777782350714091,0.022076297113101426
9.199999999999964,0.006218764859182176,0.012888663483043737,0.10202458457289329,0.012465436553966364,0.017731085971850958,0.022088727525016897
9.209999999999964,0.00625690079771053,0.012931194314831777,0.10151208181319556,0.012465710918383954,0.017686921036009363,0.022103016179755134
9.219999999999963,0.006295314125727793,0.01297588839272259,0.10101069957618136,0.012467391305460462,0.01764532804550469,0.022119127358277726
9.229999999999963,0.006333958113713185,0.013022686032080536,0.10052077449468164,0.01247048586043345,0.017606302688242117,0.022137020628714074
9.239999999999965,0.00637278596356295,0.013071525974964174,0.10004263742652732,0.012475000207581124,0.017569837158512014,0.022156650861838097
9.249999999999964,0.006411750851427974,0.013122345510870936,0.09957661358279032,0.01248093745021462,0.017535920324229654,0.022177968258544633
9.259999999999962,0.006450805971134937,0.013175080598779447,0.09912302264189005,0.012488298177885479,0.017504537896048982,0.022200918389501095
9.269999999999962,0.006489904578245319,0.013229665990116483,0.0986821788478998,0.012497080480818351,0.01747567259735441,0.022225442247109893
9.279999999999962,0.006529000034802697,0.01328603535225184,0.0982543910918318,0.012507279971543467,0.01744930433416264,0.022251476309882195
9.289999999999962,0.006568045854812295,0.013344121392095919,0.09783996297507962,0.012518889813671889,0.017425410364018935,0.022278952619300067
9.299999999999962,0.006606995750488809,0.01340385597935182,0.09743919285447558,0.01253190075772972,0.01740396546303038,0.02230779886923004
9.30999999999996,0.006645803679299864,0.013465170268961865,0.09705237386855128,0.012546301183942619,0.01738494209022331,0.022337938507941215
9.31999999999996,0.006684423891823426,0.013527994822285384,0.09667979394463236,0.01256207715183388,0.017368310548446644,0.022369290852774396
9.32999999999996,0.0067228109804289456,0.01359225972654546,0.0963217357864429,0.012579212456464697,0.017354039141088705,0.022401771217500484
9.33999999999996,0.006760919928785025,0.013657894712087853,0.09597847684198432,0.012597688691105611,0.017342094323937948,0.022435291052386452
9.34999999999996,0.006798706162190373,0.013724829267009056,0.09565028925157386,0.012617485316089222,0.017332440851583496,0.022469758096950936
9.35999999999996,0.006836125598718012,0.013792992748739595,0.09533743977605894,0.012638579733561878,0.017325041917812065,0.022505076545344237
9.36999999999996,0.006873134701154069,0.013862314492220957,0.09504018970538819,0.012660947367826695,0.01731985928952755,0.022541147224234174
9.37999999999996,0.006909690529702465,0.013932723914386935,0.09475879474792653,0.012684561750945792,0.01731685343381405,0.022577867783020143
9.38999999999996,0.006945750795415863,0.014004150614732999,0.09449350490109656,0.012709394613240624,0.01731598363788067,0.02261513289613132
9.39999999999996,0.006981273914301448,0.014076524471810152,0.09424456430404564,0.012735415978296902,0.017317208121746988,0.022652834477093008
9.40999999999996,0.0070162190620377705,0.014149775735508092,0.09401221107307207,0.01276259426205001,0.01732048414363875,0.02269086190397208
9.41999999999996,0.007050546229228187,0.014223835115003977,0.0937966771205171,0.012790896375500533,0.017325768098171386,0.022729102255743573
9.42999999999996,0.007084216277110497,0.014298633862256776,0.09359818795773962,0.012820287830586322,0.017333015607515143,0.022767440559066106
9.43999999999996,0.007117190993640585,0.01437410385093545,0.09341696248263731,0.012850732848719395,0.017342181605849147,0.022805760044923896
9.449999999999958,0.007149433149864886,0.014450177650697152,0.09325321275200597,0.012882194471491418,0.017353220417494243,0.022843942414582544
9.459999999999958,0.007180906556487104,0.01452678859678049,0.09310714373892524,0.012914634673067624,0.017366085829148902,0.022881868114294428
9.469999999999958,0.007211576120519234,0.014603870854928947,0.09297895307539034,0.012948014473819143,0.017380731156651293,0.022919416618159646
9.479999999999958,0.007241407901888975,0.01468135948169119,0.09286883078056685,0.012982294054770447,0.017397109306674197,0.022956466718496573
9.489999999999958,0.007270369169858483,0.014759190480158502,0.0927769589752699,0.013017432872451615,0.017415172833733485,0.022992896823008518
9.499999999999956,0.007298428459094602,0.014837300851205501,0.09270351158348505,0.013053389773747894,0.017434873992852904,0.023028585257957482
9.509999999999955,0.007325555625217387,0.014915628640301628,0.092648654021874,0.013090123110338511,0.017456164788181645,0.023063410576479933
9.519999999999955,0.00735172189963927,0.014994112979954979,0.0926125428781823,0.013127590852313999,0.01747899701781478,0.023097251871109115
9.529999999999957,0.00737689994348943,0.015072694127838985,0.09259532557930446,0.013165750700555427,0.01750332231502393,0.023129989089504092
9.539999999999957,0.00740106390039807,0.01515131350063872,0.09259714004954062,0.013204560197449207,0.01752909218606589,0.023161503352324454
9.549999999999956,0.007424189447896581,0.015229913703638551,0.09261811435939049,0.01324397683549591,0.017556258044701973,0.023191677272126295
9.559999999999956,0.007446253847173686,0.015308438556054977,0.09265836636513436,0.01328395816335031,0.017584771243532346,0.023220395272086806
9.569999999999956,0.0074672359909147236,0.01538683311209575,0.09271800333945197,0.013324461888807435,0.0176145831022272,0.02324754390329027
9.579999999999956,0.007487116448941362,0.01546504367769885,0.09279712159339674,0.013365445978231718,0.01764564493271367,0.02327301215923126
9.589999999999955,0.00750587751136131,0.015543017822874546,0.09289580609016226,0.013406868751913796,0.017677908061352682,0.023296691786122696
9.599999999999955,0.007523503228929942,0.01562070438954375,0.09301413005126347,0.013448688974826206,0.017711323848115922,0.02331847758755008
9.609999999999957,0.007539979450316996,0.015698053494738334,0.0931521545559826,0.01349086594223422,0.017745843702756104,0.023338267721992285
9.619999999999957,0.007555293855963664,0.015775016529009124,0.09330992813512345,0.013533359559613538,0.017781419097956885,0.023355963991728526
9.629999999999956,0.0075694359882126664,0.01585154614988893,0.09348748636023847,0.01357613041635056,0.01781800157944968,0.023371472121663437
9.639999999999954,0.007582397277401522,0.015927596270308795,0.09368485142959837,0.01361913985276078,0.017855542773093435,0.023384702026629803
9.649999999999954,0.007594171063628519,0.016003122041992165,0.09390203175233718,0.013662350020047738,0.017893994388939405,0.023395568065773642
9.659999999999954,0.00760475261393027,0.016078079834039298,0.09413902153243424,0.01370572393291906,0.017933308222354345,0.02340398928268459
9.669999999999954,0.007614139134646359,0.01615242720709941,0.09439580035446501,0.01374922551465578,0.01797343615234182,0.02340988962999629
9.679999999999954,0.007622329778788743,0.016226122883647075,0.09467233277335207,0.013792819634485629,0.018014330137262006,0.023413198177241946
9.689999999999952,0.007629325648281562,0.016299126714920613,0.09496856791064903,0.013836472137149548,0.018055942208199487,0.023413849300807525
9.699999999999951,0.007635129790991827,0.016371399645073514,0.09528443906012785,0.01388014986459881,0.018098224460275442,0.0234117828548826
9.709999999999951,0.00763974719252813,0.016442903673068276,0.09561986330559312,0.013923820669840293,0.018141129042253713,0.023406944322386214
9.719999999999953,0.007643184762832495,0.01651360181282389,0.09597474115396594,0.013967453423062232,0.018184608144847413,0.023399284944973373
9.729999999999952,0.00764545131762307,0.01658345805211542,0.09634895618678908,0.01401101801030102,0.01822861398818568,0.02338876183141806
9.739999999999952,0.007646557554766158,0.01665243731071065,0.09674237473337341,0.014054485325020767,0.018273098808935646,0.02337533804390136
9.749999999999952,0.007646516025672864,0.016720505398209844,0.0971548455688121,0.014097827253052744,0.018318014847582515,0.02335898266198585
9.759999999999952,0.00764534110183242,0.016787628972030795,0.09758619964004533,0.014141016651381602,0.018363314336352448,0.02333967082430637
9.769999999999952,0.007643048936607725,0.016853775495957117,0.0980362498230577,0.014184027321284704,0.018408949488230616,0.023317383748223154
9.779999999999951,0.007639657422426122,0.016918913199644423,0.09850479071411995,0.014226833976349398,0.018454872487491655,0.023292108727853963
9.789999999999951,0.007635186143504273,0.016983011039456198,0.09899159845776274,0.01426941220591699,0.018501035482126907,0.023263839111060527
9.799999999999953,0.007629656324258199,0.017046038660973088,0.09949643061392106,0.014311738434518344,0.018547390578523195,0.023232574256149916
9.80999999999995,0.007623090773570647,0.017107966363481757,0.10001902606642689,0.014353789877861201,0.01859388983871973,0.0231983194692578
9.81999999999995,0.007615513825113331,0.017168765066703683,0.10055910497474725,0.014395544495908425,0.018640485280541266,0.023161085923559088
9.82999999999995,0.007606951273945525,0.017228406279978223,0.10111636877055602,0.014436980943565917,0.018687128880878465,0.023120890561562992
9.83999999999995,0.007597430309630498,0.017286862074076294,0.10169050020039162,0.014478078519489618,0.018733772582366547,0.023077755981795713
9.84999999999995,0.007586979446127322,0.01734410505579284,0.10228116341529497,0.0145188171135211,0.01878036830370108,0.023031710311178035
9.85999999999995,0.007575628448727954,0.017400108345446426,0.10288800410795829,0.014559177153262732,0.018826867953815253,0.022982787064381838
9.86999999999995,0.007563408258319392,0.017454845557407096,0.1035106496975682,0.014599139550300328,0.01887322345011616,0.022931024991403377
9.87999999999995,0.007550350913260623,0.0175082907837844,0.10414870956220965,0.01463868564657129,0.0189193867409436,0.022876467914525484
9.889999999999947,0.007536489469174258,0.017560418581428157,0.1048017753184091,0.01467779716135782,0.01896530983238661,0.022819164555763525
9.899999999999949,0.007521857916959213,0.01761120396240552,0.1054694211471532,0.014716456139356855,0.0190109448195778,0.02275916835581387
9.909999999999949,0.007506491099331672,0.017660622388107124,0.10615120416558235,0.014754644900242168,0.019056243922579864,0.022696537285460807
9.919999999999948,0.007490424626201332,0.017708649767105483,0.10684666484359946,0.014792345990092461,0.019101159526971445,0.022631333650354264
9.929999999999948,0.007473694789193671,0.017755262456847797,0.10755532746485999,0.014829542135014395,0.019145644229221076,0.022563623890041965
9.939999999999948,0.007456338475633929,0.017800437269216835,0.10827670063195376,0.014866216197244177,0.019189650886907612,0.022493478372114867
9.949999999999948,0.007438393082308273,0.017844151479938876,0.10901027781595203,0.014902351133967305,0.019233132673809335,0.022420971182294448
9.959999999999948,0.007419896429308384,0.017886382841761726,0.1097555379507663,0.014937929959053955,0.01927604313984705,0.02234617991125295
9.969999999999947,0.0074008866742484546,0.0179271096012757,0.11051194607289615,0.014972935707866102,0.01931833627583068,0.02226918543892091
9.979999999999947,0.00738140222712191,0.017966310519212304,0.1112789540071567,0.015007351405251461,0.019359966582924805,0.02219007171700717
9.989999999999949,0.007361481666043512,0.01800396489403163,0.11205600109891103,0.01504116003680129,0.019400889146714794,0.022108925550430765
9.999999999999948,0.0073411636541047,0.018040052588596978,0.11284251499318537,0.015074344523420206,0.019441059715716816,0.02202583637833418
10.009999999999946,0.00732048685755605,0.018074554059727185,0.11363791246081721,0.015106887699240736,0.019480434784129853,0.02194089605531244
10.019999999999946,0.007299489865518055,0.018107450390408213,0.11444160027151287,0.015138772292912021,0.019518971678579636,0.021854198633455398
10.029999999999946,0.00727821111140813,0.018138723324433167,0.11525297611340159,0.015169980912294819,0.01955662864855954,0.02176584014576062
10.039999999999946,0.007256688796258509,0.018168355303226465,0.11607142955836251,0.015200496032599885,0.01959336496023411,0.021675918391428076
10.049999999999946,0.00723496081408788,0.01819632950459873,0.11689634307205837,0.015230299988016963,0.019629140993232198,0.021584532723496953
10.059999999999944,0.00721306467948095,0.0182226298831773,0.11772709306724628,0.015259374966898928,0.019663918340013638,0.021491783839234106
10.069999999999943,0.007191037457526626,0.018247241212257903,0.11856305099857775,0.01528770301058325,0.019697659907344404,0.02139777357363947
10.079999999999943,0.007168915696266927,0.018270149126817913,0.1194035844967675,0.015315266015941574,0.019730330019362304,0.021302604696404197
10.089999999999945,0.007146735361810233,0.018291340167420858,0.12024805853971733,0.015342045741747532,0.019761894521660852,0.02120638071264593
10.099999999999945,0.007124531776258562,0.0183108018247321,0.12109583665792478,0.015368023818946697,0.01979232088576373,0.02110920566774272
10.109999999999944,0.007102339558587999,0.018328522584360393,0.12194628217127282,0.015393181764902798,0.019821578313307598,0.021011183956576297
10.119999999999944,0.007080192568606996,0.018344491971740623,0.12279875945406622,0.015417501001680342,0.019849637839197277,0.02091242013747451
10.129999999999944,0.007058123854101065,0.018358700596781147,0.12365263522494471,0.015440962878406026,0.01987647243294377,0.020813018751125203
10.139999999999944,0.007036165601254597,0.018371140198015945,0.12450727985807288,0.01546354869772933,0.019902057097344335,0.020713084144727834
10.149999999999944,0.007014349088422477,0.018381803686026512,0.12536206871181976,0.01548523974637686,0.019926368963622144,0.02061272030165137
10.159999999999943,0.006992704643308763,0.018390685185924006,0.12621638347101316,0.015506017329765238,0.019949387382122756,0.020512030676871518
10.169999999999945,0.006971261603598618,0.01839778007870166,0.12706961349876927,0.015525862810601419,0.01997109400767674,0.02041111803846273
10.179999999999945,0.006950048281081556,0.018403085041283594,0.1279211571938178,0.015544757651357224,0.019991472878789295,0.020310084315417396
10.189999999999944,0.006929091929295829,0.018406598085120313,0.12877042334914224,0.015562683460462304,0.020010510489904938,0.02020903045205561
10.199999999999942,0.0069084187147136775,0.018408318593216785,0.1296168325076191,0.015579622042025159,0.020028195856098618,0.020108056269278897
10.209999999999942,0.0068880536914744965,0.018408247355513906,0.13045981831016706,0.01559555544887278,0.02004452056963627,0.020007260332912433
10.219999999999942,0.006868020779657948,0.018406386602566768,0.1312988288317397,0.015610466038694945,0.020059478847908232,0.01990673982936774
10.229999999999942,0.0068483427470732204,0.018402740037479708,0.13213332790036855,0.015624336533079628,0.02007306757227219,0.01980659044883267
10.239999999999942,0.00682904119452662,0.018397312866077098,0.1329627963943762,0.01563715007921855,0.02008528631737694,0.019706906276152698
10.24999999999994,0.0068101365445196295,0.018390111825303496,0.13378673351274917,0.015648890314039963,0.020096137370614744,0.019607779689510538
10.25999999999994,0.0067916480333242695,0.018381145209844928,0.13460465801342772,0.01565954143049085,0.02010562574149384,0.01950930126694926
10.26999999999994,0.006773593706381161,0.018370422896944107,0.135416109413998,0.015669088245647982,0.020113759160914593,0.019411559700726114
10.27999999999994,0.006755990416966622,0.018357956369354344,0.13622064914907445,0.015677516270292558,0.02012054807051821,0.019314641719433975
10.28999999999994,0.006738853828076167,0.018343758736345913,0.1370178616785521,0.01568481177954367,0.020126005602409285,0.019218632017784145
10.29999999999994,0.006722198417469409,0.01832784475264924,0.1378073555408137,0.01569096188411678,0.02013014754962739,0.019123613193910073
10.30999999999994,0.0067060374858127995,0.01831023083519672,0.13858876434486378,0.01569595460175756,0.020132992327781173,0.019029665694031778
10.31999999999994,0.0066903831678423765,0.018290935077510492,0.13936174769528198,0.015699778928398772,0.020134560928282433,0.018936867764314483
10.32999999999994,0.006675246446451864,0.01826997726157428,0.140125992043864,0.015702424908599546,0.020134876863639236,0.018845295409749708
10.33999999999994,0.006660637169594003,0.018247378867022185,0.14088121146182853,0.01570388370485162,0.020133966105287036,0.018755022359871306
10.34999999999994,0.006646564069864868,0.01822316307748372,0.14162714832650736,0.015704147665368214,0.02013185701444795,0.018666120041089664
10.35999999999994,0.006633034786621802,0.018197354783953363,0.1423635739165258,0.015703210389998997,0.020128580266503167,0.01857865755538697
10.36999999999994,0.006620055890465841,0.01816998058509814,0.14309028890958223,0.015701066793936423,0.02012416876934088,0.018492701665069593
10.37999999999994,0.006607632909900078,0.018141068784451805,0.14380712377705943,0.0156977131688949,0.020118657576105904,0.01840831678322747
10.389999999999938,0.006595770359957933,0.01811064938444968,0.14451393906997761,0.015693147241452553,0.020112083792729434,0.018325564969512854
10.399999999999938,0.006584471772582194,0.018078754077237833,0.14521062559137823,0.01568736822824324,0.02010448648056135,0.01824450593082785
10.409999999999938,0.006573739728529604,0.01804541623215849,0.14589710445110182,0.01568037688767599,0.020095906554366303,0.018165197026501885
10.419999999999938,0.006563575890580198,0.018010670879779846,0.14657332700000014,0.015672175567847203,0.02008638667588192,0.0180876932775374
10.429999999999938,0.0065539810378455856,0.017974554692307215,0.1472392746417906,0.015662768250305645,0.02007597114307827,0.018012047379491095
10.439999999999936,0.006544955100989641,0.017937105960186044,0.14789495852185727,0.015652160589337435,0.020064705775217205,0.01793830971853303
10.449999999999935,0.006536497198189212,0.01789836456468644,0.1485404190932008,0.01564035994645829,0.020052637793808236,0.017866528390189353
10.459999999999935,0.006528605671667972,0.017858371946239546,0.14917572556043593,0.015627375419822735,0.020039815699598562,0.01779674922023139
10.469999999999937,0.006521278124636712,0.017817171068273147,0.14980097520325894,0.015613217868271283,0.020026289145795673,0.01772901578712849
10.479999999999936,0.006514511458472303,0.017774806376268947,0.15041629258117167,0.015597899929734609,0.020012108807769866,0.017663369445438747
10.489999999999936,0.006508301909966336,0.01773132375174737,0.15102182862155378,0.015581436033709647,0.019997326249513007,0.017599849349480366
10.499999999999936,0.0065026450884725995,0.017686770460889716,0.15161775959357252,0.01556384240752546,0.019981993787151694,0.017538492476613484
10.509999999999936,0.006497536012781849,0.01764119509753568,0.15220428597108307,0.015545137076125887,0.01996616434983677,0.01747933364946417
10.519999999999936,0.006492969147557796,0.017594647520340435,0.15278163118871013,0.015525339855112822,0.01994989133834802,0.017422405556427607
10.529999999999935,0.006488938439182116,0.017547178783942186,0.15335004029667235,0.01550447233683107,0.019933228481750057,0.01736773876979471
10.539999999999935,0.006485437350872862,0.017498841064097947,0.1539097785214004,0.015482557869345314,0.019916229692415882,0.017315361760875413
10.549999999999937,0.00648245889695393,0.017449687576900776,0.15446112974035808,0.015459621528257533,0.0198989489197222,0.017265300911560442
10.559999999999937,0.006479995676164624,0.017399772492359175,0.15500439488055906,0.01543569008141913,0.019881440002741006,0.017217580521864354
10.569999999999936,0.006478039903911893,0.017349150842744968,0.15553989025104778,0.015410791946682323,0.019863756522312096,0.017172222813100834
10.579999999999934,0.006476583443380233,0.01729787842617844,0.15606794582007918,0.015384957142897806,0.01984595165296523,0.017129247926440834
10.589999999999934,0.006475617835418966,0.017246011705942726,0.15658890344786466,0.015358217234407038,0.019828078015245814,0.01708867391670445
10.599999999999934,0.006475134327122952,0.017193607706039015,0.15710311508560154,0.015330605269312769,0.0198101875290628,0.017050516741365356
10.609999999999934,0.00647512389901711,0.01714072390352493,0.1576109409512001,0.015302155711847856,0.019792331268708673,0.01701479024491127
10.619999999999932,0.006475577290753483,0.017087418118207322,0.15811274769176603,0.015272904369195674,0.019774559320199663,0.016981506138879728
10.629999999999932,0.006476485025232932,0.01703374840026773,0.15860890654250467,0.01524288831313742,0.01975692064156788,0.016950673978034483
10.639999999999931,0.006477837431072637,0.016979772916380514,0.1590997914912835,0.015212145796909212,0.019739462926729522,0.016922301133242536
10.649999999999933,0.006479624663357269,0.016925549834855072,0.1595857774576515,0.015180716167653223,0.01972223247356403,0.01689639276166005
10.659999999999933,0.006481836722634977,0.01687113721030763,0.16006723849469853,0.015148639774858284,0.01970527405685442,0.016872951774853744
10.669999999999932,0.006484463472143504,0.016816592868350307,0.16054454602174228,0.01511595787521569,0.019688630806736735,0.01685197880548106
10.679999999999932,0.006487494653272829,0.016761974290774823,0.16101806709542674,0.015082712534358514,0.019672344093275965,0.016833472173129155
10.689999999999932,0.006490919899290391,0.016707338501701557,0.16148816272637806,0.015048946525989858,0.019656453417734567,0.016817427849876967
10.699999999999932,0.006494728747376274,0.016652741955155637,0.16195518624808145,0.015014703228924257,0.0196409963110442,0.01680383942611205
10.709999999999932,0.006498910649038545,0.016598240424516936,0.1624194817441265,0.01498002652256726,0.019626008239941546,0.016792698077114806
10.719999999999931,0.006503454978998307,0.016543888894269262,0.16288138253942983,0.014944960681350311,0.019611522521183426,0.01678399253091451
10.729999999999931,0.0065083510426438415,0.016489741454446344,0.16334120976047908,0.014909550268629376,0.0195975702442069,0.016777709037911898
10.739999999999933,0.006513588082153022,0.016435851198138732,0.16379927096905395,0.01487384003054647,0.019584180202542965,0.01677383134274224
10.74999999999993,0.00651915528137964,0.016382270122388565,0.16425585887328156,0.014837874790338625,0.019571378834235383,0.016772340658821966
10.75999999999993,0.0065250417696002495,0.016329049032760355,0.16471125011929458,0.014801699343556565,0.01955919017146743,0.01677321564598894
10.76999999999993,0.006531236624225331,0.016276237451838385,0.16516570416619583,0.014765358354626034,0.019547635799559263,0.01677643239161847
10.77999999999993,0.006537728872588686,0.016223883531867475,0.1656194622465177,0.014728896255150526,0.019536734825459236,0.016781964395572082
10.78999999999993,0.0065445074929385595,0.016172033971726257,0.16607274641393727,0.014692357144315807,0.019526503855808314,0.016789782559309845
10.79999999999993,0.006551561414760497,0.01612073393840284,0.16652575867972522,0.014655784691714841,0.019516956984608192,0.016799855179469362
10.80999999999993,0.006558879518563162,0.01607002699313166,0.16697868023929643,0.014619222042866918,0.019508105790476068,0.01681214794619105
10.81999999999993,0.006566450635254689,0.016019955022344764,0.16743167079026305,0.01458271172765822,0.019499959343429737,0.016826623946452523
10.829999999999927,0.006574263545232092,0.015970558173584656,0.16788486794348081,0.014546295571884867,0.019492524221120494,0.016843243672660754
10.839999999999929,0.006582306977304013,0.01592187479651387,0.1683383867286504,0.014510014612037811,0.01948580453441305,0.016861965036731392
10.849999999999929,0.006590569607569489,0.015873941389135515,0.1687923191960351,0.01447390901343711,0.01947980196218659,0.016882743389857655
10.859999999999928,0.006599040058381638,0.0158267925493105,0.1692467341157384,0.014438017991803631,0.019474515795190227,0.016905531548143043
10.869999999999928,0.006607706897531555,0.015780460931624003,0.16970167677573747,0.014402379738346524,0.019469942988734838,0.01693027982425255
10.879999999999928,0.006616558637790458,0.01573497720961801,0.1701571688795308,0.01436703134844293,0.019466078223954845,0.01695693606522825
10.889999999999928,0.006625583736946135,0.015690370043368478,0.1706132085438643,0.014332008753996449,0.01946291397733342,0.01698544569660847
10.899999999999928,0.0066347705984638955,0.015646666052345447,0.171069770396545,0.014297346659583543,0.019460440598147416,0.017015751772974114
10.909999999999927,0.006644107572893671,0.015603889793459195,0.17152680577382257,0.014263078482524252,0.019458646393448853,0.017047795035014253
10.919999999999929,0.006653582960134167,0.015562063744176393,0.17198424301624168,0.014229236297033526,0.019457517720157035,0.017081513973159972
10.929999999999929,0.006663185012652348,0.015521208290594949,0.17244198786128348,0.014195850782615288,0.01945703908379184,0.017116844897794053
10.939999999999928,0.006672901939741971,0.015481341720392875,0.17289992393057302,0.014162951176852541,0.019457193243335297,0.017153722016020473
10.949999999999926,0.00668272191288796,0.015442480220602125,0.17335791330896838,0.014130565232726685,0.019457961321667928,0.01719207751497547
10.959999999999926,0.006692633072284247,0.015404637880183604,0.17381579721246412,0.014098719180572969,0.019459322920991926,0.01723184165166759
10.969999999999926,0.006702623534532956,0.0153678266973859,0.17427339674149828,0.014067437694750827,0.019461256242622328,0.017272942849331008
10.979999999999926,0.0067126814015349475,0.015332056591866596,0.17473051371590909,0.01403674386508092,0.019463738210492267,0.01731530780025934
10.989999999999926,0.006722794770568447,0.01529733542155395,0.17518693158741824,0.014006659173077942,0.01946674459767484,0.01735886157506354
10.999999999999924,0.006732951745543164,0.01526366900423059,0.1756424164251073,0.013977203472987983,0.01947025015517595,0.017403527738278905
11.009999999999923,0.006743140449408564,0.015231061143823069,0.1760967179689211,0.01394839497761704,0.019474228742207403,0.017449228470239254
11.019999999999923,0.006753349037683602,0.015199513661376382,0.17654957074585426,0.01392025024890913,0.019478653457111958,0.017495884695135737
11.029999999999925,0.006763565713061673,0.015169026430680837,0.17700069524326817,0.013892784193199849,0.019483496768084665,0.01754341621517081
11.039999999999925,0.006773778741030689,0.015139597418501302,0.17744979913380554,0.013866010061042223,0.019488730642823575,0.017591741850696938
11.049999999999924,0.006783976466435282,0.01511122272933545,0.17789657854656535,0.013839939451487515,0.01949432667626348,0.017640779586196476
11.059999999999924,0.006794147330896722,0.015083896654599029,0.17834071937947146,0.013814582320709944,0.019500256215615963,0.0176904467219206
11.069999999999924,0.00680427989099629,0.015057611726107261,0.17878189864804572,0.0137899469948828,0.019506490482046633,0.017740660030965628
11.079999999999924,0.006814362837119821,0.015032358773695737,0.17921978586602075,0.01376604018722873,0.01951300068842099,0.01779133592152731
11.089999999999923,0.0068243850128565115,0.015008126986803906,0.17965404445330935,0.01374286701916973,0.01951975815260549,0.01784239060403744
11.099999999999923,0.006834335434844311,0.014984903979829161,0.1800843331667697,0.013720431045495815,0.01952673440582385,0.017893740262849057
11.109999999999925,0.006844203312956486,0.014962675861048472,0.1805103075490841,0.013698734283462926,0.019533901295574835,0.01794530123209355
11.119999999999925,0.006853978070727649,0.014941427304895973,0.18093162139101815,0.013677777245722438,0.019541231082649848,0.017996990175287275
11.129999999999924,0.006863649365922549,0.014921141627375057,0.18134792820232123,0.013657558976973488,0.019548696531864352,0.018048724268222932
11.139999999999922,0.006873207111156436,0.014901800864367242,0.18175888268649026,0.013638077094212832,0.019556270996237555,0.01810042138464486
11.149999999999922,0.0068826414944800785,0.014883385852576177,0.18216414221455307,0.013619327830435096,0.01956392849450486,0.018152000284174977
11.159999999999922,0.006891942999844672,0.014865876312817978,0.18256336829298622,0.013601306081610134,0.019571643781999146,0.018203380801923262
11.169999999999922,0.006901102427363387,0.014849250935343993,0.18295622802083097,0.013584005456736405,0.01957939241506245,0.01825448403918114
11.179999999999922,0.006910110913289289,0.014833487466861903,0.18334239553091686,0.013567418330744726,0.019587150809235232,0.018305232554559132
11.18999999999992,0.00691895994963321,0.014818562798907038,0.18372155340983132,0.013551535900008264,0.01959489629151661,0.018355550554899742
11.19999999999992,0.006927641403346646,0.014804453057210022,0.18409339409095918,0.013536348240202252,0.01960260714700477,0.018405364085279707
11.20999999999992,0.006936147534992368,0.014791133691710905,0.18445762121462433,0.013521844366250414,0.019610262660225083,0.018454601217411097
11.21999999999992,0.00694447101682142,0.01477857956688105,0.1848139509490971,0.013508012294098376,0.019617843151446636,0.018503192235746452
11.22999999999992,0.00695260495017298,0.014766765052027318,0.18516211326597204,0.013494839104069891,0.019625330008280872,0.018551069820579753
11.23999999999992,0.006960542882113479,0.0147556641112661,0.18550185316322457,0.013482311005584153,0.019632705712844464,0.018598169227410387
11.24999999999992,0.0069682788212311825,0.01474525039286663,0.185832931829191,0.01347041340303196,0.019639953864745107,0.01864442846180436
11.25999999999992,0.006975807252501804,0.014735497317671204,0.18615512774075435,0.013459130962619753,0.01964705920010927,0.01868978844894965
11.26999999999992,0.006983123151142558,0.014726378166300104,0.18646823768905663,0.01344844767999191,0.01965400760681837,0.018734193197067553
11.27999999999992,0.006990221995378256,0.0147178661648395,0.18677207772610646,0.013438346948432833,0.019660786136060187,0.018777589953816898
11.28999999999992,0.00699709977804983,0.014709934568698929,0.18706648402590703,0.013428811627436388,0.019667383010240354,0.0188199293548126
11.29999999999992,0.0070037530169980424,0.01470255674432048,0.18735131365437732,0.013419824111420717,0.019673787627238086,0.01886116556336464
11.30999999999992,0.007010178764152814,0.014695706248426517,0.18762644524334313,0.013411366398366882,0.01967999056093675,0.018901256400520733
11.31999999999992,0.007016374613255049,0.014689356904499714,0.18789177956497907,0.013403420158166278,0.01968598355792665,0.018940163464465594
11.329999999999918,0.007022338706134622,0.014683482876192354,0.18814724000400695,0.01339596680046502,0.01969175953027985,0.018977852238295956
11.339999999999918,0.007028069737462692,0.014678058737360984,0.1883927729255577,0.01338898754178858,0.019697312544336446,0.01901429218515709
11.349999999999918,0.007033566957886262,0.014673059538421076,0.18862834793690447,0.013382463471716757,0.01970263780549351,0.019049456829702587
11.359999999999918,0.007038830175438564,0.014668460868718074,0.1888539580413502,0.01337637561785989,0.019707731639019812,0.019083323824838266
11.369999999999918,0.007043859755103992,0.014664238914615086,0.18906961968246572,0.013370705009364112,0.019712591466920015,0.01911587500273679
11.379999999999916,0.007048656616403346,0.014660370512996165,0.18927537267670314,0.013365432738650686,0.019717215780857045,0.01914709640914839
11.389999999999915,0.007053222228854763,0.014656833199870139,0.18947128003223673,0.013360540021077283,0.019721604111131278,0.019176978320062796
11.399999999999917,0.007057558605158541,0.014653605253738818,0.18965742765182436,0.013356008252199179,0.01972575699172283,0.01920551523978825
11.409999999999917,0.007061668291953792,0.014650665733386838,0.18983392391773568,0.013351819062303144,0.019729675921428762,0.019232705879525965
11.419999999999916,0.007065554358009415,0.01464799450978502,0.19000089915761142,0.013347954367885155,0.019733363321159866,0.019258553115592564
11.429999999999916,0.0070692203797486,0.014645572291891102,0.1901585049915903,0.01334439641974791,0.01973682248749271,0.019283063926651273
11.439999999999916,0.007072670424060127,0.01464338064627474,0.19030691356301696,0.013341127847410707,0.019740057542602597,0.019306249309660774
11.449999999999916,0.007075909028406825,0.014641402010656782,0.19044631665719672,0.013338131699556716,0.01974307338073771,0.019328124174648124
11.459999999999916,0.00707894117829347,0.014639619701591425,0.19057692471461726,0.013335391480295413,0.019745875611438885,0.019348707218750448
11.469999999999915,0.007081772282204629,0.014638017916605161,0.1906989657465694,0.013332891181092897,0.01974847049976988,0.019368020780215094
11.479999999999915,0.007084408144166725,0.014636581731143704,0.19081268416211739,0.013330615308311962,0.01975086490389977,0.01938609067322304
11.489999999999917,0.00708685493412047,0.014635297090692707,0.1909183395159213,0.013328548906393747,0.01975306621045756,0.01940294600453389
11.499999999999917,0.00708911915630791,0.01463415079845043,0.19101620518657686,0.013326677576794153,0.019755082268140184,0.019418618973068853
11.509999999999916,0.007091207615891101,0.014633130498946158,0.1911065669950649,0.01332498749285609,0.01975692132009196,0.01943314465367454
11.519999999999914,0.0070931273840344885,0.014632224658015357,0.19118972177271104,0.013323465410847328,0.019758591935590843,0.019446560766444652
11.529999999999914,0.007094885761698439,0.014631422539556108,0.19126597588776234,0.013322098677414624,0.019760102941582706,0.01945890743309071
11.539999999999914,0.007096490242400334,0.014630714179494051,0.1913356437392898,0.013320875233696362,0.0197614633546058,0.019470226921921758
11.549999999999914,0.007097948474198451,0.014630090357370226,0.19139904622668827,0.013319783616309918,0.019762682313644902,0.019480563383017145
11.559999999999912,0.007099268221144021,0.014629542565941475,0.19145650920265517,0.013318812955407154,0.01976376901444688,0.019489962575183095
11.569999999999911,0.007100457324433982,0.014629062979154629,0.19150836191722867,0.013317952969987895,0.01976473264581414,0.019498471586302656
11.579999999999911,0.007101523663487701,0.014628644418831693,0.1915549354602557,0.013317193960676646,0.019765582328366726,0.019506138548733253
11.589999999999913,0.007102475117168235,0.014628280320384929,0.19159656120947474,0.01331652680018871,0.019766327056228182,0.01951301235146878
11.599999999999913,0.007103319525371271,0.014627964697865061,0.19163356929112502,0.013315942921724961,0.019766975642050672,0.01951914235084705
11.609999999999912,0.007104064651209575,0.014627692108631326,0.19166628705963135,0.013315434305537985,0.019767536665759693,0.019524578081636313
11.619999999999912,0.007104718144024556,0.014627457617920829,0.19169503760266435,0.0133149934639108,0.019768018427369347,0.019529368970379445
11.629999999999912,0.007105287503457351,0.014627256763589069,0.19172013827804213,0.013314613424784913,0.01976842890419129,0.01953356405292159
11.639999999999912,0.007105780044810338,0.01462708552129246,0.1917418992896835,0.013314287714266168,0.019768775712727848,0.01953721169810005
11.649999999999912,0.0071062028659295675,0.014626940270382154,0.1917606223110276,0.013314010338224016,0.01976906607549888,0.019540359339622882
11.659999999999911,0.007106562815843377,0.014626817760771255,0.1917765991656923,0.013313775763185565,0.01976930679300269,0.019543053218189436
11.669999999999913,0.007106866465401996,0.01462671508102409,0.191790110576298,0.01331357889671441,0.019769504220959223,0.019545338135905147
11.679999999999913,0.007107120080175177,0.014626629627897812,0.19180142499316885,0.013313415067459596,0.019769664252934607,0.019547257225026753
11.68999999999991,0.007107329595876131,0.014626559077543276,0.19181079751508626,0.013313280005062086,0.019769792308402725,0.019548851733060268
11.69999999999991,0.007107500596586673,0.014626501358543409,0.19181846891452878,0.01331316982010962,0.019769893326259818,0.019550160826227906
11.70999999999991,0.007107638296057609,0.014626454626936422,0.1918246647799579,0.013313080984328563,0.019769971763769448,0.019551221413317225
11.71999999999991,0.007107747522353667,0.014626417243344122,0.19182959478773184,0.013313010311189796,0.019770031600875346,0.019552067991923956
