Raw.Pin 1,Raw.Pin 2,Raw.Pin 3,Raw.Pin 4,Raw.Pin 5,Raw.Pin 6,Raw.Pin 7,Raw.Pin 8,Raw.Pin 9,Raw.Pin 10,Raw.Pin 11,Raw.Pin 12,Raw.Pin 13,Raw.Pin 14,Raw.Pin 15,Raw.Pin 16,Raw.Pin 41,Raw.Pin 42,Raw.Pin 43,Raw.Pin 44,Raw.Pin 45,Raw.Pin 46,Raw.Pin 47,Raw.Pin 48,Raw.Pin 49,Raw.Pin 50,Raw.Pin 51,Raw.Pin 52,Raw.Pin 53,Raw.Pin 54,Raw.Pin 55,Raw.Pin 56,Raw.Pin 57,Raw.Pin 58,Raw.Pin 59,Raw.Pin 60,Raw.Pin 61,Raw.Pin 62,Raw.Pin 63,Raw.Pin 64,Voltage.EMG01_r_gastro,Voltage.EMG02_r_soleus,Voltage.EMG03_r_rect_fem,Voltage.EMG04_r_tfl,Voltage.EMG05_r_semimemb,Voltage.EMG06_l_gastro,Voltage.EMG07_l_soleus,Voltage.EMG08_l_rect_fem,Voltage.EMG09_l_tfl,Voltage.EMG10_l_semimemb,Voltage.not_used
-0.3741455078125,-0.59478759765625,-1.4996337890625,-1.02294921875,1.29486083984375,0.6170654296875,0.52459716796875,0.9417724609375,-0.02166748046875,0.0091552734375,-0.0689697265625,-0.009765625,-0.0103759765625,-0.00823974609375,-0.00518798828125,-0.00030517578125,-0.0091552734375,0.00213623046875,-0.02166748046875,0.00091552734375,-0.0030517578125,-0.0048828125,-0.0048828125,-0.00640869140625,-0.0146484375,0.00579833984375,-0.01800537109375,0.01556396484375,0.0030517578125,0.00091552734375,-0.00213623046875,-0.020751953125,-0.00335693359375,-0.00732421875,0.0,-0.006103515625,-0.00335693359375,-0.00885009765625,-0.00732421875,0.00213623046875,-0.08342467993497849,0.13631561398506165,-0.11058593541383743,0.008971252478659153,0.02559204027056694,0.045738525688648224,0.0016940308269113302,0.07573028653860092,0.02863464318215847,-0.01105499267578125,0.03434997424483299
-0.340576171875,-0.59356689453125,-1.4886474609375,-1.02996826171875,1.30767822265625,0.61920166015625,0.52978515625,0.96649169921875,-0.01312255859375,0.02532958984375,-0.064697265625,0.0006103515625,-0.05218505859375,-0.05462646484375,-0.0732421875,-0.04180908203125,-0.00823974609375,0.0030517578125,-0.01739501953125,0.001220703125,0.0,-0.00030517578125,-0.0042724609375,-0.0006103515625,-0.02044677734375,0.00244140625,-0.03143310546875,0.0177001953125,-0.0030517578125,-0.006103515625,-0.01129150390625,-0.00701904296875,0.00213623046875,-0.00732421875,0.00091552734375,-0.01007080078125,-0.0018310546875,-0.00579833984375,-0.006103515625,-0.00030517578125,-0.023152465000748634,0.013482361100614071,-0.08739257603883743,0.15255646407604218,0.009570312686264515,0.051536865532398224,-0.0012051390949636698,0.04597564786672592,0.04297790676355362,-0.01334381103515625,0.03679138049483299
-0.3271484375,-0.61187744140625,-1.49169921875,-1.0430908203125,1.33331298828125,0.62347412109375,0.54290771484375,0.985107421875,-0.0457763671875,-0.0103759765625,-0.093994140625,-0.0152587890625,-0.12054443359375,-0.11199951171875,-0.140380859375,-0.07293701171875,-0.01373291015625,0.0048828125,-0.018310546875,0.00152587890625,-0.0030517578125,-0.0067138671875,-0.00335693359375,-0.00030517578125,-0.01495361328125,0.0054931640625,-0.01922607421875,0.01678466796875,-0.0030517578125,-0.0079345703125,-0.00946044921875,-0.00885009765625,-0.0006103515625,-0.01007080078125,-0.00091552734375,-0.009765625,-0.0054931640625,-0.00701904296875,-0.0042724609375,0.0018310546875,0.19718444347381592,0.08657196164131165,-0.05016113445162773,0.265318900346756,0.004992675967514515,0.048790283501148224,-0.005630188155919313,0.05284210294485092,0.03077087365090847,-0.01502227783203125,0.03785949572920799
-0.3179931640625,-0.59783935546875,-1.49658203125,-1.05377197265625,1.343994140625,0.6304931640625,0.55145263671875,0.9942626953125,-0.0506591796875,-0.01251220703125,-0.1171875,-0.0152587890625,-0.13092041015625,-0.1104736328125,-0.15380859375,-0.0872802734375,-0.0140380859375,0.0018310546875,-0.0189208984375,0.00030517578125,-0.0042724609375,-0.006103515625,-0.00640869140625,-0.0067138671875,-0.0128173828125,0.0079345703125,-0.0152587890625,0.01983642578125,0.0006103515625,-0.001220703125,-0.006103515625,-0.00396728515625,0.00030517578125,-0.0079345703125,-0.00335693359375,-0.00762939453125,-0.00823974609375,-0.0042724609375,-0.00732421875,-0.00518798828125,0.6599835157394409,0.44255951046943665,-0.04146362468600273,0.291716605424881,-0.013470458798110485,0.042686767876148224,0.032974548637866974,0.06321807950735092,0.04190979152917862,-0.02082061767578125,0.028856812044978142
-0.31951904296875,-0.60638427734375,-1.50787353515625,-1.05865478515625,1.35009765625,0.638427734375,0.56365966796875,1.02081298828125,-0.032958984375,0.01190185546875,-0.09002685546875,-0.0115966796875,-0.01373291015625,-0.001220703125,-0.00946044921875,-0.00396728515625,-0.01007080078125,0.00030517578125,-0.0152587890625,0.00244140625,-0.00885009765625,-0.010986328125,-0.00579833984375,-0.0018310546875,-0.0103759765625,0.00762939453125,-0.0146484375,0.01800537109375,-0.0030517578125,-0.001220703125,-0.00518798828125,-0.00701904296875,-0.00030517578125,-0.00823974609375,-0.001220703125,-0.00762939453125,-0.00518798828125,-0.00701904296875,-0.0054931640625,-0.00457763671875,0.9743145704269409,0.9624264240264893,-0.006673583760857582,0.280882865190506,-0.02476196363568306,0.049400635063648224,0.018020935356616974,0.06810089200735092,0.03428039699792862,-0.02295684814453125,0.03328185901045799
-0.31646728515625,-0.6103515625,-1.517333984375,-1.06201171875,1.37603759765625,0.6500244140625,0.57281494140625,1.03759765625,-0.0299072265625,0.01220703125,-0.08636474609375,-0.0042724609375,-0.01129150390625,-0.0067138671875,-0.00640869140625,0.008544921875,-0.00946044921875,0.003662109375,-0.01739501953125,0.00244140625,0.00030517578125,-0.001220703125,-0.00457763671875,0.00579833984375,-0.015869140625,0.0018310546875,-0.03021240234375,0.01617431640625,0.00030517578125,-0.006103515625,-0.0079345703125,-0.00457763671875,0.00213623046875,-0.00579833984375,0.00244140625,-0.0091552734375,0.00152587890625,-0.006103515625,-0.00579833984375,-0.010986328125,1.108286738395691,1.4084408283233643,0.06397461146116257,0.17849640548229218,-0.013623046688735485,0.06832153350114822,-0.0024258422199636698,0.05177398771047592,0.03458557277917862,-0.01731109619140625,0.05357604846358299
-0.32257080078125,-0.61920166015625,-1.5252685546875,-1.05560302734375,1.39617919921875,0.66650390625,0.5828857421875,1.06170654296875,-0.025634765625,0.02105712890625,-0.08544921875,-0.0042724609375,-0.0128173828125,-0.00701904296875,-0.008544921875,-0.00091552734375,-0.00946044921875,0.0042724609375,-0.01312255859375,0.0,-0.00518798828125,-0.01983642578125,-0.00579833984375,-0.0054931640625,-0.02227783203125,0.00396728515625,-0.01922607421875,0.02532958984375,-0.001220703125,-0.0018310546875,0.006103515625,-0.00396728515625,-0.00091552734375,-0.009765625,-0.00244140625,-0.01068115234375,0.0030517578125,-0.00457763671875,-0.0042724609375,-0.0048828125,1.158945918083191,1.5176937580108643,0.14881347119808197,0.03033355623483658,0.10936279594898224,0.052604980766773224,0.0003207397530786693,0.04658599942922592,0.03763733059167862,-0.00388336181640625,0.04472595080733299
-0.3082275390625,-0.61370849609375,-1.50299072265625,-1.03729248046875,1.4208984375,0.6695556640625,0.59173583984375,1.0797119140625,-0.02960205078125,0.01861572265625,-0.0848388671875,-0.00091552734375,-0.0146484375,-0.0054931640625,-0.00457763671875,0.00457763671875,-0.01129150390625,0.0042724609375,-0.0140380859375,0.00091552734375,-0.0042724609375,-0.00244140625,-0.00396728515625,-0.00396728515625,-0.0177001953125,0.0006103515625,-0.0201416015625,0.0201416015625,-0.00213623046875,-0.0042724609375,-0.00640869140625,-0.0048828125,0.0018310546875,-0.0006103515625,0.00091552734375,-0.00823974609375,0.0030517578125,-0.00274658203125,-0.001220703125,0.0079345703125,1.014902949333191,1.2833187580108643,0.18787597119808197,-0.03009124845266342,0.07136841118335724,0.051994629204273224,0.026718445122241974,0.04917999356985092,0.02985534630715847,-0.01013946533203125,0.04167419299483299
-0.32196044921875,-0.61920166015625,-1.48834228515625,-1.01226806640625,1.42791748046875,0.68206787109375,0.604248046875,1.102294921875,-0.029296875,0.01922607421875,-0.0897216796875,-0.00274658203125,-0.01708984375,-0.00762939453125,-0.00274658203125,0.0006103515625,-0.01007080078125,0.001220703125,-0.01373291015625,0.00274658203125,-0.00457763671875,-0.01708984375,-0.006103515625,-0.0115966796875,-0.00823974609375,0.0042724609375,-0.0164794921875,0.01922607421875,-0.00457763671875,-0.0067138671875,-0.00396728515625,-0.00640869140625,0.0018310546875,-0.00274658203125,-0.00152587890625,-0.010986328125,-0.00396728515625,-0.00152587890625,0.0,-0.0042724609375,0.20160949230194092,1.0446712970733643,0.20328734815120697,-0.15963836014270782,-0.04307251051068306,0.032921142876148224,0.035568542778491974,0.004624328576028347,0.03580627590417862,-0.01425933837890625,0.03465515002608299
-0.31463623046875,-0.61981201171875,-1.45965576171875,-0.977783203125,1.46759033203125,0.69580078125,0.61187744140625,1.11541748046875,-0.0335693359375,0.01556396484375,-0.0848388671875,0.00030517578125,-0.0164794921875,-0.00579833984375,-0.0079345703125,-0.0030517578125,-0.01007080078125,0.00274658203125,-0.02044677734375,-0.001220703125,-0.00732421875,-0.00885009765625,-0.0067138671875,-0.00579833984375,-0.01556396484375,0.00701904296875,-0.0201416015625,0.01617431640625,0.0,-0.00244140625,-0.003662109375,-0.00274658203125,-0.00030517578125,-0.0048828125,-0.00152587890625,-0.0103759765625,-0.003662109375,-0.01068115234375,-0.00885009765625,-0.00091552734375,-0.22426331043243408,0.9161922931671143,0.16422484815120697,-0.305054634809494,-0.12516479194164276,0.008964844048023224,0.049911804497241974,0.01850982755422592,0.03229675441980362,-0.00693511962890625,0.05327087268233299
-0.3094482421875,-0.62103271484375,-1.43096923828125,-0.931396484375,1.4935302734375,0.703125,0.6280517578125,1.13128662109375,-0.02777099609375,0.01068115234375,-0.0836181640625,0.003662109375,-0.015869140625,-0.0054931640625,-0.0091552734375,-0.00030517578125,-0.0146484375,0.0042724609375,-0.01800537109375,0.01434326171875,-0.0067138671875,-0.0018310546875,-0.00946044921875,-0.00885009765625,-0.0128173828125,0.01434326171875,-0.0189208984375,0.01953125,0.00640869140625,-0.0030517578125,-0.00274658203125,-0.00823974609375,0.00244140625,-0.00579833984375,-0.00091552734375,-0.0067138671875,-0.00579833984375,-0.006103515625,-0.00244140625,-0.00457763671875,-0.5790301561355591,0.6885311603546143,0.16163085401058197,-0.313904732465744,-0.17109374701976776,0.004844970535486937,0.047470398247241974,0.008286437951028347,0.03809509426355362,-0.00373077392578125,0.04274230822920799
-0.29266357421875,-0.61370849609375,-1.3958740234375,-0.9039306640625,1.517333984375,0.7122802734375,0.6268310546875,1.14654541015625,-0.02777099609375,0.01983642578125,-0.068359375,0.0152587890625,-0.05828857421875,-0.042724609375,-0.0750732421875,-0.0360107421875,-0.015869140625,0.001220703125,-0.018310546875,-0.00457763671875,-0.0067138671875,-0.00518798828125,-0.009765625,-0.008544921875,-0.0146484375,-0.0054931640625,-0.02105712890625,0.01800537109375,-0.0067138671875,0.00091552734375,-0.0048828125,0.0128173828125,-0.00030517578125,-0.00518798828125,-0.00274658203125,-0.008544921875,-0.00396728515625,-0.0128173828125,-0.00579833984375,-0.00152587890625,-0.7328387498855591,0.06505706906318665,0.13920043408870697,-0.22021575272083282,-0.16026000678539276,0.011864013969898224,0.009323425590991974,0.009507141076028347,0.02481994591653347,-0.05194854736328125,-0.008679809980094433
-0.27069091796875,-0.595703125,-1.36505126953125,-0.87005615234375,1.55303955078125,0.72357177734375,0.63232421875,1.1676025390625,-0.05340576171875,0.0018310546875,-0.1025390625,-0.001220703125,-0.11566162109375,-0.10894775390625,-0.13702392578125,-0.0762939453125,-0.00885009765625,0.00579833984375,-0.0262451171875,0.00030517578125,-0.0067138671875,-0.0140380859375,-0.00335693359375,-0.00244140625,-0.01220703125,0.00885009765625,-0.01739501953125,0.018310546875,0.00213623046875,-0.00518798828125,-0.00244140625,-0.003662109375,0.00030517578125,-0.00701904296875,-0.00030517578125,-0.0115966796875,-0.0030517578125,-0.0054931640625,-0.00274658203125,-0.00335693359375,-0.5723162889480591,-0.45679351687431335,0.12714599072933197,-0.11157318204641342,-0.13050536811351776,0.029259033501148224,0.021835632622241974,0.02720733731985092,0.02695617638528347,-0.01105499267578125,0.029619751498103142
-0.23834228515625,-0.57586669921875,-1.33880615234375,-0.83984375,1.572265625,0.73516845703125,0.63934326171875,1.1895751953125,-0.05828857421875,-0.00396728515625,-0.1080322265625,0.0006103515625,-0.13397216796875,-0.123291015625,-0.1348876953125,-0.087890625,-0.0225830078125,0.0030517578125,-0.0177001953125,-0.00823974609375,-0.00335693359375,-0.0067138671875,-0.00823974609375,-0.00396728515625,-0.0164794921875,0.00640869140625,-0.01708984375,0.01373291015625,-0.00091552734375,-0.00152587890625,-0.00152587890625,-0.00518798828125,-0.00885009765625,-0.00762939453125,0.001220703125,-0.00762939453125,-0.00152587890625,-0.0054931640625,-0.0079345703125,-0.0042724609375,-0.7450457811355591,-0.8625247478485107,0.14621947705745697,-0.04672332853078842,-0.15675048530101776,0.044365234673023224,0.033890075981616974,0.001114807091653347,0.04465637356042862,-0.00846099853515625,0.03175598010420799
-0.2056884765625,-0.57159423828125,-1.3079833984375,-0.80810546875,1.61834716796875,0.7452392578125,0.64697265625,1.2115478515625,-0.04608154296875,0.01556396484375,-0.09979248046875,0.009765625,-0.01861572265625,-0.023193359375,-0.00701904296875,0.001220703125,-0.0091552734375,0.00335693359375,-0.01556396484375,0.00244140625,-0.02044677734375,-0.00335693359375,-0.00762939453125,-0.0146484375,-0.01922607421875,0.00335693359375,-0.02838134765625,0.01953125,-0.00244140625,-0.0189208984375,-0.00396728515625,-0.00518798828125,0.00213623046875,-0.0048828125,-0.00213623046875,-0.0103759765625,-0.00518798828125,-0.00640869140625,-0.00396728515625,-0.00640869140625,-1.242634892463684,-1.0122134685516357,0.11600708216428757,-0.004609069786965847,-0.15003661811351776,0.015678711235523224,0.049301452934741974,0.002182922326028347,0.03122863732278347,-0.00876617431640625,0.026110230013728142
-0.16357421875,-0.54962158203125,-1.2744140625,-0.7696533203125,1.6497802734375,0.75653076171875,0.65155029296875,1.22772216796875,-0.0372314453125,0.02410888671875,-0.09735107421875,0.0189208984375,-0.0115966796875,-0.00335693359375,-0.00579833984375,0.00244140625,-0.01312255859375,0.00701904296875,-0.01434326171875,0.00091552734375,-0.00213623046875,-0.0048828125,-0.006103515625,-0.00091552734375,-0.01495361328125,0.00091552734375,-0.0213623046875,0.01495361328125,-0.00335693359375,-0.0048828125,-0.0140380859375,-0.00518798828125,-0.00244140625,-0.00396728515625,-0.003662109375,-0.009765625,-0.00457763671875,-0.00640869140625,-0.008544921875,-0.0006103515625,-1.452901005744934,-1.1516788005828857,0.04581664875149727,0.015379943884909153,-0.13889770209789276,0.024833984673023224,0.06883270293474197,0.00035186766763217747,0.05198059231042862,-0.01181793212890625,0.025194702669978142
-0.13092041015625,-0.52459716796875,-1.2396240234375,-0.72296142578125,1.68212890625,0.75439453125,0.65643310546875,1.246337890625,-0.04730224609375,0.02777099609375,-0.096435546875,0.02410888671875,-0.018310546875,-0.0042724609375,-0.0152587890625,0.00091552734375,-0.01068115234375,0.0054931640625,-0.01708984375,0.0067138671875,-0.00518798828125,-0.00274658203125,-0.00396728515625,-0.00732421875,-0.010986328125,0.00518798828125,-0.0177001953125,0.01922607421875,-0.0042724609375,-0.00396728515625,-0.0091552734375,-0.00701904296875,0.00152587890625,-0.006103515625,-0.003662109375,-0.00823974609375,-0.0042724609375,-0.00579833984375,-0.00518798828125,-0.0018310546875,-1.287037968635559,-1.6924502849578857,0.015756836161017418,0.03430084139108658,-0.14652709662914276,0.021629638969898224,0.054031677544116974,0.011338195763528347,0.02268371544778347,-0.00998687744140625,0.03389221057295799
-0.12054443359375,-0.5072021484375,-1.185302734375,-0.66375732421875,1.71661376953125,0.7733154296875,0.6610107421875,1.265869140625,-0.03875732421875,0.02899169921875,-0.09490966796875,0.0244140625,-0.01678466796875,-0.0213623046875,-0.00518798828125,0.00244140625,-0.00885009765625,0.0067138671875,-0.0201416015625,0.0018310546875,-0.00213623046875,-0.0030517578125,0.00152587890625,0.001220703125,-0.01434326171875,-0.01556396484375,-0.02105712890625,0.018310546875,0.00152587890625,-0.00823974609375,-0.008544921875,-0.0048828125,0.00091552734375,-0.00518798828125,-0.00091552734375,-0.00885009765625,-0.0006103515625,-0.00244140625,-0.02288818359375,-0.003662109375,-1.119496464729309,-2.3046329021453857,-0.006673583760857582,0.04193023592233658,-0.14759521186351776,0.026970215141773224,0.060135193169116974,0.02018829435110092,0.03168640285730362,-0.01044464111328125,0.03511291369795799
-0.08026123046875,-0.496826171875,-1.13189697265625,-0.59814453125,1.74957275390625,0.7843017578125,0.6658935546875,1.2860107421875,-0.04150390625,0.0299072265625,-0.098876953125,0.02685546875,-0.018310546875,-0.0048828125,-0.01007080078125,0.00152587890625,-0.0128173828125,0.00457763671875,-0.02166748046875,0.0042724609375,-0.00457763671875,-0.0103759765625,-0.00640869140625,-0.00244140625,-0.01190185546875,0.006103515625,-0.0164794921875,0.020751953125,0.00213623046875,-0.00274658203125,-0.01068115234375,0.0006103515625,-0.00335693359375,-0.0177001953125,-0.00396728515625,-0.00885009765625,0.00701904296875,-0.0067138671875,-0.00274658203125,0.001220703125,-0.9868975877761841,-2.4274661540985107,-0.04710937663912773,0.04925445467233658,-0.12638549506664276,0.026054687798023224,0.06456024199724197,0.04963775724172592,0.03534851223230362,-0.00128936767578125,0.03404479846358299
-0.06622314453125,-0.472412109375,-1.0595703125,-0.52276611328125,1.773681640625,0.806884765625,0.667724609375,1.29119873046875,-0.03021240234375,0.0347900390625,-0.0970458984375,0.03997802734375,-0.01953125,-0.0042724609375,-0.0177001953125,0.0006103515625,-0.00885009765625,0.00274658203125,-0.020751953125,0.0006103515625,-0.00885009765625,-0.00213623046875,-0.0079345703125,-0.00823974609375,-0.0140380859375,0.0067138671875,-0.0152587890625,0.02166748046875,-0.00335693359375,-0.0030517578125,-0.00274658203125,-0.003662109375,-0.0006103515625,-0.006103515625,-0.00030517578125,-0.009765625,-0.006103515625,-0.0048828125,-0.00457763671875,-0.01007080078125,-0.9003802537918091,-2.0783450603485107,-0.06648803502321243,0.05230621248483658,-0.11478881537914276,0.030174560844898224,0.07295257598161697,0.03575225919485092,0.02665100060403347,-0.00342559814453125,0.021837769076228142
-0.0531005859375,-0.460205078125,-1.01104736328125,-0.45318603515625,1.79779052734375,0.80718994140625,0.6744384765625,1.304931640625,-0.04486083984375,0.03662109375,-0.098876953125,0.03326416015625,-0.0238037109375,-0.0018310546875,-0.00885009765625,-0.00335693359375,-0.01007080078125,0.00335693359375,-0.020751953125,0.00457763671875,-0.00701904296875,-0.00579833984375,-0.01190185546875,-0.0079345703125,-0.01495361328125,-0.00885009765625,-0.0213623046875,0.01739501953125,0.00091552734375,-0.0030517578125,0.0,0.0030517578125,0.001220703125,-0.00457763671875,-0.00274658203125,-0.00762939453125,-0.006103515625,-0.00732421875,-0.006103515625,-0.001220703125,-0.8945819139480591,-1.6709353923797607,-0.08510375767946243,0.07046417146921158,-0.11997680366039276,0.055504150688648224,0.058456726372241974,0.03407379239797592,0.04862365871667862,0.00588226318359375,0.030077515169978142
-0.04608154296875,-0.4510498046875,-0.95367431640625,-0.37078857421875,1.826171875,0.8154296875,0.67138671875,1.31744384765625,-0.037841796875,0.04486083984375,-0.0872802734375,0.04486083984375,-0.06683349609375,-0.054931640625,-0.07476806640625,-0.03021240234375,-0.01251220703125,0.00396728515625,-0.02166748046875,0.0054931640625,-0.0079345703125,-0.00274658203125,-0.00091552734375,-0.006103515625,-0.0079345703125,0.00457763671875,-0.02105712890625,0.0164794921875,-0.003662109375,-0.0042724609375,-0.003662109375,-0.0042724609375,0.0,-0.00732421875,-0.0018310546875,-0.00946044921875,-0.0042724609375,-0.0054931640625,-0.00518798828125,-0.00030517578125,-0.7560321092605591,-1.2758853435516357,-0.06160522624850273,0.08755401521921158,-0.11188964545726776,0.031853027641773224,0.023971863090991974,0.02781768888235092,0.03046569786965847,-0.01059722900390625,0.03312927111983299
-0.0433349609375,-0.45166015625,-0.90179443359375,-0.30731201171875,1.8487548828125,0.82489013671875,0.67840576171875,1.33209228515625,-0.0677490234375,0.01251220703125,-0.11474609375,0.03631591796875,-0.12481689453125,-0.10528564453125,-0.13671875,-0.074462890625,-0.00885009765625,0.00762939453125,-0.03814697265625,0.00152587890625,-0.00579833984375,0.00762939453125,-0.00823974609375,-0.00274658203125,-0.01678466796875,0.006103515625,-0.02105712890625,0.0152587890625,-0.0006103515625,-0.00579833984375,-0.00732421875,-0.00213623046875,0.00335693359375,-0.003662109375,0.00030517578125,-0.010986328125,-0.0048828125,-0.0006103515625,-0.00457763671875,0.0018310546875,-0.5698748826980591,-1.0802676677703857,-0.05061889812350273,0.12005523592233658,-0.13111571967601776,0.026054687798023224,0.041366882622241974,0.05741973966360092,0.02420959435403347,-6.866455078125e-05,0.030687866732478142
-0.04241943359375,-0.42938232421875,-0.8502197265625,-0.24200439453125,1.87530517578125,0.83740234375,0.6829833984375,1.3409423828125,-0.07171630859375,0.01220703125,-0.12451171875,0.03143310546875,-0.13214111328125,-0.1263427734375,-0.16021728515625,-0.08026123046875,-0.01190185546875,0.00396728515625,-0.02105712890625,0.00244140625,-0.0054931640625,-0.00579833984375,-0.00457763671875,-0.006103515625,-0.0146484375,0.0067138671875,-0.01800537109375,0.0201416015625,-0.0006103515625,-0.00091552734375,-0.0042724609375,-0.00701904296875,0.0,-0.0054931640625,-0.0048828125,-0.0067138671875,-0.00457763671875,-0.0042724609375,-0.0030517578125,-0.0006103515625,-0.3297015428543091,-1.0047366619110107,-0.03810669109225273,0.15240387618541718,-0.10975341498851776,0.032615967094898224,0.020462341606616974,0.03071685880422592,0.02268371544778347,0.00740814208984375,0.021990356966853142
-0.0384521484375,-0.4241943359375,-0.80535888671875,-0.18096923828125,1.893310546875,0.84320068359375,0.6866455078125,1.3580322265625,-0.05767822265625,0.02593994140625,-0.108642578125,0.035400390625,-0.01983642578125,0.00335693359375,-0.0140380859375,0.0042724609375,-0.013427734375,0.0030517578125,-0.02349853515625,0.00518798828125,-0.00946044921875,-0.00152587890625,-0.0048828125,-0.00640869140625,-0.01251220703125,0.00457763671875,-0.01678466796875,0.018310546875,-0.00457763671875,-0.0018310546875,-0.0054931640625,-0.00396728515625,0.0006103515625,-0.00579833984375,-0.0006103515625,-0.01617431640625,-0.00518798828125,-0.0091552734375,-0.00885009765625,-0.00701904296875,-0.12248717993497849,-0.8222415447235107,-0.04359985515475273,0.19650177657604218,-0.10868529975414276,0.024528808891773224,0.044723816215991974,0.02659698575735092,0.03504333645105362,0.04036712646484375,0.05372863635420799
-0.037841796875,-0.41656494140625,-0.7659912109375,-0.12298583984375,1.91741943359375,0.85540771484375,0.694580078125,1.3665771484375,-0.0469970703125,0.04608154296875,-0.0994873046875,0.0421142578125,-0.0250244140625,-0.00335693359375,-0.01190185546875,-0.00518798828125,-0.00946044921875,-0.00335693359375,-0.0250244140625,0.00518798828125,-0.0115966796875,-0.00518798828125,-0.00518798828125,-0.009765625,-0.0164794921875,0.003662109375,-0.0177001953125,0.0189208984375,-0.001220703125,0.00030517578125,-0.01495361328125,-0.00396728515625,0.0006103515625,0.0152587890625,0.00244140625,-0.00885009765625,-0.008544921875,-0.009765625,-0.00335693359375,-0.0042724609375,0.20481383800506592,-0.5163028240203857,0.03956054523587227,0.20413117110729218,-0.09937743842601776,0.006523437332361937,0.024734802544116974,0.04399200528860092,0.01139221154153347,0.04097747802734375,0.03267150744795799
-0.03936767578125,-0.40771484375,-0.73089599609375,-0.07476806640625,1.937255859375,0.86273193359375,0.697021484375,1.38397216796875,-0.0537109375,0.040283203125,-0.10406494140625,0.05340576171875,-0.0164794921875,-0.0018310546875,-0.02105712890625,0.0030517578125,-0.0115966796875,0.0042724609375,-0.02166748046875,0.0054931640625,-0.008544921875,-0.00091552734375,-0.00335693359375,-0.00457763671875,-0.01495361328125,0.00579833984375,-0.02288818359375,0.01678466796875,-0.003662109375,-0.00152587890625,-0.00335693359375,-0.018310546875,-0.00030517578125,-0.00823974609375,-0.00396728515625,-0.00885009765625,-0.00396728515625,-0.00335693359375,-0.00396728515625,-0.0042724609375,0.5565289258956909,-0.13895294070243835,0.14393065869808197,0.23709015548229218,-0.09800414741039276,-0.006293945480138063,0.018783874809741974,0.03071685880422592,0.02405700646340847,0.07180023193359375,0.017870483919978142
-0.04150390625,-0.40313720703125,-0.69000244140625,-0.0286865234375,1.95709228515625,0.8782958984375,0.70037841796875,1.3995361328125,-0.04974365234375,0.04302978515625,-0.1025390625,0.05767822265625,-0.02197265625,-0.00457763671875,-0.02227783203125,0.0006103515625,-0.010986328125,0.00457763671875,-0.0189208984375,0.00457763671875,-0.00457763671875,-0.0030517578125,-0.00762939453125,-0.0054931640625,-0.01708984375,0.0030517578125,-0.02105712890625,0.01861572265625,-0.0018310546875,-0.0048828125,-0.00640869140625,-0.001220703125,0.0018310546875,-0.0018310546875,-0.0006103515625,-0.01129150390625,0.00030517578125,-0.0048828125,-0.0042724609375,0.00030517578125,0.9259442090988159,0.18392303586006165,0.18818114697933197,0.285307914018631,-0.06840209662914276,-0.0029370116535574198,0.028702087700366974,0.011490783654153347,0.01352844201028347,0.08232879638671875,0.030687866732478142
-0.04241943359375,-0.39642333984375,-0.66986083984375,0.01129150390625,1.9781494140625,0.87860107421875,0.7073974609375,1.4111328125,-0.05767822265625,0.04302978515625,-0.10406494140625,0.04302978515625,-0.01708984375,-0.001220703125,0.0006103515625,0.00457763671875,-0.01129150390625,0.00335693359375,-0.0189208984375,0.0030517578125,-0.00946044921875,-0.00732421875,-0.0054931640625,-0.00823974609375,-0.015869140625,0.0054931640625,-0.01953125,0.01983642578125,-0.00091552734375,-0.00396728515625,-0.00396728515625,-0.00579833984375,-0.00244140625,-0.0042724609375,-0.00244140625,-0.00732421875,-0.00213623046875,-0.0091552734375,-0.0042724609375,-0.00274658203125,1.235850214958191,0.43615081906318665,0.15217040479183197,0.337798148393631,-0.10715942084789276,-0.004768066573888063,0.031601257622241974,0.04139801114797592,0.02878723107278347,0.08354949951171875,0.03877502307295799
-0.0482177734375,-0.39703369140625,-0.64971923828125,0.0518798828125,1.99615478515625,0.8905029296875,0.71380615234375,1.4239501953125,-0.05126953125,0.03936767578125,-0.1007080078125,0.05096435546875,-0.01495361328125,-0.00457763671875,-0.01068115234375,-0.0018310546875,-0.01129150390625,0.0006103515625,-0.02105712890625,0.0018310546875,-0.0079345703125,-0.0006103515625,-0.0067138671875,0.00823974609375,-0.0164794921875,0.00640869140625,-0.01373291015625,0.01953125,-0.00152587890625,-0.00274658203125,-0.0067138671875,-0.00335693359375,0.00091552734375,-0.00885009765625,-0.00579833984375,-0.009765625,0.0,-0.006103515625,-0.00885009765625,-0.0177001953125,1.359598994255066,0.6329891681671143,0.06641601771116257,0.386626273393631,-0.09388427436351776,-0.004005127120763063,0.042434997856616974,0.01896759122610092,0.03061828576028347,0.10491180419921875,0.03297668322920799
-0.05645751953125,-0.39337158203125,-0.62469482421875,0.0885009765625,2.02117919921875,0.89874267578125,0.7177734375,1.436767578125,-0.05157470703125,0.04180908203125,-0.10345458984375,0.0579833984375,-0.01953125,-0.0018310546875,-0.01678466796875,0.0067138671875,-0.010986328125,0.0042724609375,-0.0201416015625,0.003662109375,-0.00457763671875,-0.0018310546875,-0.00518798828125,-0.00762939453125,-0.018310546875,0.00518798828125,-0.01617431640625,0.0189208984375,-0.0079345703125,-0.00396728515625,-0.0091552734375,-0.00274658203125,0.00152587890625,-0.00335693359375,0.0018310546875,-0.00701904296875,-0.00640869140625,-0.003662109375,-0.00335693359375,-0.001220703125,1.229899287223816,0.8089230060577393,0.06656860560178757,0.419280081987381,-0.07618407905101776,-0.015754394233226776,0.034958191215991974,0.014237365685403347,0.02298889122903347,0.09072113037109375,0.03602844104170799
-0.0592041015625,-0.3912353515625,-0.6005859375,0.12908935546875,2.0306396484375,0.9088134765625,0.721435546875,1.4495849609375,-0.04791259765625,0.04547119140625,-0.09033203125,0.06439208984375,-0.06988525390625,-0.05584716796875,-0.0775146484375,-0.03326416015625,-0.01129150390625,0.003662109375,-0.01800537109375,0.00244140625,-0.00732421875,-0.0042724609375,-0.00885009765625,-0.00762939453125,-0.0177001953125,0.0054931640625,-0.02227783203125,0.0189208984375,-0.00335693359375,0.00244140625,-0.00396728515625,-0.00518798828125,0.00152587890625,-0.00396728515625,-0.00091552734375,-0.00518798828125,-0.00274658203125,-0.001220703125,-0.0030517578125,-0.00244140625,0.8861187696456909,0.9232113361358643,0.18696044385433197,0.422637015581131,-0.08610229194164276,-0.024909667670726776,0.062118835747241974,0.01835723966360092,0.02146301232278347,0.09774017333984375,0.015734253451228142
-0.05706787109375,-0.38848876953125,-0.57464599609375,0.177001953125,2.04559326171875,0.91583251953125,0.738525390625,1.458740234375,-0.074462890625,0.01129150390625,-0.11474609375,0.0494384765625,-0.13519287109375,-0.10650634765625,-0.142822265625,-0.0836181640625,-0.0128173828125,0.00518798828125,-0.020751953125,0.0048828125,-0.00335693359375,-0.00457763671875,-0.010986328125,-0.0030517578125,-0.01495361328125,0.00457763671875,-0.0164794921875,0.01861572265625,0.00213623046875,-0.00213623046875,-0.00457763671875,-0.0006103515625,0.001220703125,-0.00823974609375,0.0006103515625,-0.0128173828125,-0.00274658203125,-0.00335693359375,-0.0067138671875,-0.0042724609375,0.3987530469894409,0.9187862873077393,0.31742310523986816,0.483214408159256,-0.07709960639476776,-0.025367431342601776,0.11125213652849197,0.012711486779153347,0.01627502404153347,0.09865570068359375,0.013598022051155567
-0.07354736328125,-0.3839111328125,-0.54534912109375,0.20538330078125,2.0623779296875,0.9246826171875,0.73822021484375,1.47369384765625,-0.07904052734375,0.013427734375,-0.12115478515625,0.04852294921875,-0.1263427734375,-0.1190185546875,-0.15960693359375,-0.0958251953125,-0.013427734375,0.0042724609375,-0.0189208984375,0.00701904296875,-0.008544921875,-0.00518798828125,-0.00274658203125,-0.0067138671875,-0.0128173828125,0.0054931640625,-0.01251220703125,0.01861572265625,-0.0030517578125,-0.01556396484375,-0.00457763671875,-0.0054931640625,-0.0030517578125,-0.00701904296875,-0.00335693359375,-0.00823974609375,-0.0030517578125,-0.00640869140625,-0.00335693359375,0.0054931640625,0.028880005702376366,0.7787106037139893,0.37662720680236816,0.6129141449928284,-0.07603149116039276,0.005455322097986937,0.10224945098161697,0.013779602013528347,0.02588806115090847,0.08248138427734375,0.013598022051155567
-0.0750732421875,-0.37445068359375,-0.51513671875,0.2508544921875,2.0672607421875,0.931396484375,0.7403564453125,1.48712158203125,-0.064697265625,0.03631591796875,-0.111083984375,0.05126953125,-0.0177001953125,-0.0054931640625,-0.013427734375,0.0042724609375,-0.0091552734375,0.00579833984375,-0.02105712890625,0.0054931640625,-0.0091552734375,-0.00030517578125,-0.00732421875,-0.0054931640625,-0.015869140625,0.0048828125,-0.01800537109375,0.0177001953125,-0.0213623046875,-0.00640869140625,-0.0054931640625,-0.00244140625,-0.001220703125,-0.006103515625,0.00030517578125,-0.00732421875,-0.0048828125,-0.00457763671875,0.0,-0.0048828125,-0.11729919165372849,0.6920406818389893,0.45093750953674316,0.6579275727272034,-0.06412963569164276,0.004387206863611937,0.08531219512224197,0.03529449552297592,0.03840027004480362,0.08049774169921875,0.020006714388728142
-0.07598876953125,-0.3631591796875,-0.4791259765625,0.30181884765625,2.07611083984375,0.93780517578125,0.7421875,1.50360107421875,-0.05615234375,0.04425048828125,-0.10467529296875,0.06011962890625,-0.020751953125,-0.00152587890625,-0.0140380859375,0.003662109375,-0.0115966796875,0.010986328125,-0.02044677734375,0.00213623046875,-0.0177001953125,-0.00823974609375,-0.00518798828125,0.01190185546875,-0.01739501953125,0.006103515625,-0.03387451171875,0.018310546875,-0.0006103515625,-0.0146484375,-0.009765625,-0.00244140625,0.003662109375,-0.00885009765625,0.00152587890625,-0.00396728515625,-0.00579833984375,-0.00518798828125,0.0030517578125,-0.00518798828125,-0.3104754686355591,0.7372066974639893,0.49823975563049316,0.6000967621803284,-0.05192260816693306,0.010643310844898224,0.08271820098161697,0.015610656701028347,0.02405700646340847,0.07454681396484375,0.016192017123103142
-0.0799560546875,-0.360107421875,-0.440673828125,0.3594970703125,2.09991455078125,0.94512939453125,0.74798583984375,1.50390625,-0.05218505859375,0.04486083984375,-0.10284423828125,0.06134033203125,-0.0177001953125,0.00152587890625,-0.0177001953125,0.00091552734375,-0.0128173828125,0.00335693359375,-0.0213623046875,0.003662109375,-0.01251220703125,-0.0091552734375,-0.00396728515625,-0.00823974609375,-0.0146484375,0.0054931640625,-0.01708984375,0.0177001953125,-0.00244140625,-0.00244140625,-0.00091552734375,-0.0018310546875,0.0030517578125,-0.003662109375,0.001220703125,-0.0067138671875,-0.00335693359375,-0.0091552734375,-0.01190185546875,-0.0067138671875,-0.3225299119949341,0.8806393146514893,0.5716345310211182,0.495574027299881,-0.06794433295726776,-0.0017163086449727416,0.06883270293474197,0.03376861661672592,0.02634582482278347,0.07241058349609375,0.018328247591853142
-0.0823974609375,-0.34912109375,-0.39276123046875,0.41412353515625,2.11395263671875,0.947265625,0.75592041015625,1.51336669921875,-0.05645751953125,0.03936767578125,-0.10223388671875,0.0616455078125,-0.0299072265625,0.0,-0.0140380859375,0.013427734375,-0.0103759765625,0.0048828125,-0.02166748046875,0.00946044921875,-0.0079345703125,-0.0030517578125,-0.00885009765625,-0.0091552734375,-0.0152587890625,0.0030517578125,-0.01220703125,0.01861572265625,-0.0048828125,-0.00579833984375,-0.0042724609375,-0.0079345703125,0.00518798828125,-0.0042724609375,-0.00152587890625,-0.009765625,-0.0018310546875,-0.00213623046875,-0.0006103515625,-0.00823974609375,0.038035277277231216,1.0834286212921143,0.5965063571929932,0.380675345659256,-0.06947021186351776,0.010795898735523224,0.07005340605974197,0.015610656701028347,0.03229675441980362,0.06966400146484375,0.03633361682295799
-0.101318359375,-0.34271240234375,-0.34423828125,0.47698974609375,2.12493896484375,0.95550537109375,0.75439453125,1.51641845703125,-0.05615234375,0.0457763671875,-0.0958251953125,0.0616455078125,-0.0225830078125,-0.00885009765625,-0.010986328125,0.001220703125,-0.01068115234375,0.00885009765625,-0.023193359375,0.0,-0.0048828125,-0.0042724609375,-0.0054931640625,-0.0054931640625,-0.01922607421875,0.0054931640625,-0.01953125,0.0189208984375,0.00518798828125,-0.0048828125,-0.006103515625,-0.0140380859375,-0.0006103515625,-0.0048828125,0.00518798828125,-0.00640869140625,-0.00335693359375,-0.003662109375,-0.00823974609375,-0.00335693359375,0.4745892286300659,1.4214107990264893,0.5804846286773682,0.23037628829479218,-0.004010009579360485,0.0037768555339425802,0.09706146270036697,0.013321838341653347,0.02878723107278347,0.06188201904296875,0.022142944857478142
-0.10467529296875,-0.3363037109375,-0.30120849609375,0.54901123046875,2.13043212890625,0.9588623046875,0.7574462890625,1.52557373046875,-0.0653076171875,0.04302978515625,-0.0994873046875,0.06988525390625,-0.02044677734375,-0.0018310546875,-0.001220703125,0.0030517578125,-0.009765625,0.00885009765625,-0.0164794921875,0.00732421875,-0.00579833984375,-0.0079345703125,-0.010986328125,-0.00457763671875,-0.0152587890625,0.00244140625,-0.02105712890625,0.02838134765625,-0.00518798828125,-0.00030517578125,-0.02166748046875,-0.00152587890625,0.001220703125,-0.00732421875,0.00244140625,-0.00885009765625,-0.0030517578125,-0.00213623046875,-0.00579833984375,-0.00091552734375,0.4085186719894409,1.7072079181671143,0.46879029273986816,-0.03604217618703842,0.24364013969898224,0.009117431938648224,0.09080535918474197,0.014084777794778347,0.02344665490090847,0.06920623779296875,0.015581664629280567
-0.11962890625,-0.33447265625,-0.24505615234375,0.61798095703125,2.13714599609375,0.96771240234375,0.75897216796875,1.52984619140625,-0.05584716796875,0.0445556640625,-0.09857177734375,0.0634765625,-0.01953125,-0.00244140625,-0.0103759765625,0.0018310546875,-0.009765625,0.0079345703125,-0.02044677734375,0.0067138671875,-0.00244140625,0.01953125,-0.0030517578125,-0.00030517578125,-0.00885009765625,0.00396728515625,-0.01678466796875,0.02197265625,-0.00274658203125,-0.00640869140625,0.01251220703125,-0.00030517578125,0.0030517578125,0.01129150390625,0.0006103515625,-0.00701904296875,0.02227783203125,-0.0030517578125,-0.00396728515625,0.0018310546875,0.5441693067550659,1.7206356525421143,0.20435546338558197,-0.330231636762619,0.20228882133960724,0.0024035645183175802,0.08378631621599197,0.008591613732278347,0.01490173302590847,0.06569671630859375,0.026262817904353142
-0.130615234375,-0.333251953125,-0.19439697265625,0.69610595703125,2.14752197265625,0.97381591796875,0.77392578125,1.53350830078125,-0.0506591796875,0.04730224609375,-0.08819580078125,0.07354736328125,-0.0653076171875,-0.05096435546875,-0.08209228515625,-0.03326416015625,-0.01129150390625,0.0054931640625,-0.02166748046875,0.00274658203125,-0.00274658203125,-0.00762939453125,-0.00091552734375,-0.006103515625,-0.0164794921875,0.00152587890625,-0.02105712890625,0.01251220703125,-0.0018310546875,-0.0213623046875,-0.0042724609375,-0.00457763671875,-0.0030517578125,-0.00457763671875,-0.00335693359375,-0.01007080078125,-0.0042724609375,-0.0030517578125,-0.003662109375,-0.00091552734375,0.6273297071456909,1.4206478595733643,-0.13774658739566803,-0.450013130903244,0.12797851860523224,0.019493408501148224,0.058914490044116974,0.01789947599172592,0.02481994591653347,0.05104827880859375,0.04457336291670799
-0.1593017578125,-0.333251953125,-0.13824462890625,0.760498046875,2.1533203125,0.9832763671875,0.76507568359375,1.53656005859375,-0.07904052734375,0.0323486328125,-0.10833740234375,0.0604248046875,-0.1202392578125,-0.106201171875,-0.15167236328125,-0.07354736328125,-0.01708984375,0.00701904296875,-0.02197265625,0.0079345703125,-0.00396728515625,-0.0042724609375,-0.003662109375,-0.00213623046875,-0.02532958984375,0.00274658203125,-0.0201416015625,0.0164794921875,-0.0030517578125,-0.00701904296875,-0.01007080078125,-0.003662109375,0.00152587890625,-0.00732421875,0.0030517578125,-0.00885009765625,-0.0018310546875,-0.0152587890625,-0.006103515625,-0.0054931640625,0.18192565441131592,0.7709286212921143,-0.35030150413513184,-0.456879585981369,0.04985351487994194,0.013389892876148224,0.06425506621599197,0.002945861779153347,0.02283630333840847,0.07241058349609375,0.03312927111983299
-0.1812744140625,-0.3338623046875,-0.08819580078125,0.83343505859375,2.158203125,0.9881591796875,0.76751708984375,1.54388427734375,-0.08056640625,0.02105712890625,-0.1123046875,0.05645751953125,-0.13031005859375,-0.11871337890625,-0.1568603515625,-0.0762939453125,-0.0128173828125,0.00396728515625,-0.020751953125,0.0091552734375,-0.0030517578125,-0.00152587890625,-0.00152587890625,-0.0030517578125,-0.018310546875,-0.00396728515625,-0.0201416015625,0.0177001953125,-0.001220703125,-0.00885009765625,-0.0103759765625,0.00823974609375,-0.0042724609375,-0.00274658203125,0.01800537109375,-0.00732421875,-0.001220703125,-0.00640869140625,-0.0018310546875,0.0030517578125,0.08533752709627151,0.36336639523506165,-0.39317870140075684,-0.5490426421165466,0.013385009951889515,-0.012092284858226776,0.048691101372241974,0.009201965294778347,0.02436218224465847,0.06233978271484375,0.03724914416670799
-0.20355224609375,-0.3350830078125,-0.04119873046875,0.904541015625,2.16094970703125,0.9918212890625,0.771484375,1.5435791015625,-0.0653076171875,0.0323486328125,-0.09857177734375,0.0592041015625,-0.0189208984375,-0.00244140625,-0.01434326171875,0.0054931640625,-0.013427734375,-0.00518798828125,-0.01800537109375,0.00457763671875,-0.0103759765625,-0.00518798828125,-0.0067138671875,-0.0054931640625,-0.0115966796875,0.00518798828125,-0.02166748046875,0.02105712890625,-0.00244140625,-0.00152587890625,0.0006103515625,-0.0048828125,0.0030517578125,-0.00396728515625,0.0018310546875,-0.00579833984375,-0.00244140625,-0.0079345703125,-0.0018310546875,-0.00274658203125,0.4864910840988159,-0.038702696561813354,-0.43483519554138184,-0.6946114897727966,0.007434082217514515,0.021934814751148224,0.037399597465991974,-0.005293884314596653,0.02970275841653347,0.06218719482421875,0.019396362826228142
-0.22674560546875,-0.33599853515625,0.01190185546875,0.96771240234375,2.17071533203125,0.9991455078125,0.7720947265625,1.54571533203125,-0.05645751953125,0.0433349609375,-0.09246826171875,0.06591796875,-0.02044677734375,0.00030517578125,-0.01373291015625,0.00213623046875,-0.00946044921875,-0.00335693359375,-0.02410888671875,0.006103515625,0.00457763671875,-0.00640869140625,-0.00335693359375,-0.0103759765625,-0.01373291015625,0.00213623046875,-0.02044677734375,0.01953125,-0.0042724609375,-0.00244140625,-0.00244140625,-0.003662109375,0.00274658203125,-0.00396728515625,-0.0030517578125,-0.0079345703125,-0.00396728515625,-0.00396728515625,-0.00244140625,-0.01922607421875,0.4404095411300659,-0.40766021609306335,-0.5237939357757568,-0.7709054350852966,0.01689453050494194,0.014915771782398224,0.038162536919116974,0.012253723107278347,0.02543029747903347,0.05410003662109375,0.014818725176155567
-0.24658203125,-0.33447265625,0.0518798828125,1.02996826171875,2.1710205078125,0.99609375,0.77239990234375,1.5484619140625,-0.050048828125,0.045166015625,-0.0909423828125,0.0653076171875,-0.0213623046875,-0.00396728515625,-0.0103759765625,-0.00274658203125,-0.0128173828125,0.00885009765625,-0.02105712890625,0.0091552734375,0.0042724609375,-0.00579833984375,0.001220703125,-0.0018310546875,-0.01617431640625,0.003662109375,-0.02105712890625,0.01861572265625,-0.00579833984375,-0.00701904296875,-0.00579833984375,-0.0042724609375,-0.0006103515625,-0.01190185546875,0.00152587890625,-0.0079345703125,-0.003662109375,-0.00457763671875,0.00030517578125,0.00152587890625,0.4097393751144409,-0.38614532351493835,-0.7230737209320068,-0.7727364897727966,0.004992675967514515,0.037956543266773224,0.035873718559741974,0.004166564904153347,0.03183899074792862,0.04540252685546875,0.03251891955733299
-0.27191162109375,-0.33172607421875,0.101318359375,1.099853515625,2.17376708984375,1.01165771484375,0.7635498046875,1.55181884765625,-0.05706787109375,0.05279541015625,-0.089111328125,0.06866455078125,-0.0091552734375,-0.00213623046875,-0.010986328125,0.0018310546875,-0.01617431640625,0.0042724609375,-0.0238037109375,0.00457763671875,-0.0054931640625,-0.0079345703125,-0.0042724609375,-0.00244140625,-0.0128173828125,0.00823974609375,-0.02197265625,0.01800537109375,-0.00244140625,-0.0006103515625,-0.00274658203125,-0.001220703125,0.00244140625,-0.003662109375,-0.001220703125,-0.01312255859375,-0.0067138671875,-0.009765625,-0.01068115234375,-0.00396728515625,0.7721356153488159,0.045525819063186646,-0.8062341213226318,-0.6473092436790466,0.03306884691119194,0.026207275688648224,0.039993591606616974,0.012406310997903347,0.03046569786965847,0.04296112060546875,0.014818725176155567
-0.2862548828125,-0.328369140625,0.14251708984375,1.1566162109375,2.19268798828125,1.01715087890625,0.78094482421875,1.5631103515625,-0.0555419921875,0.0433349609375,-0.086669921875,0.067138671875,-0.0164794921875,0.00213623046875,-0.009765625,0.00396728515625,-0.01129150390625,0.00457763671875,-0.02105712890625,-0.0079345703125,-0.00244140625,-0.00518798828125,-0.00244140625,-0.00335693359375,-0.0189208984375,0.00335693359375,-0.0164794921875,0.018310546875,0.00030517578125,-0.001220703125,-0.00701904296875,-0.00244140625,-0.001220703125,-0.0042724609375,-0.00244140625,-0.0103759765625,-0.00457763671875,-0.00213623046875,-0.00579833984375,-0.00518798828125,0.6827191114425659,0.30126312375068665,-0.8137109279632568,-0.434601753950119,0.014758300967514515,0.012932129204273224,0.06639129668474197,0.02690216153860092,0.02634582482278347,0.04891204833984375,-0.0076116942800581455
-0.3057861328125,-0.3302001953125,0.19134521484375,1.2152099609375,2.17987060546875,1.0223388671875,0.78399658203125,1.5576171875,-0.0537109375,0.0445556640625,-0.08697509765625,0.067138671875,-0.01922607421875,-0.00274658203125,-0.0225830078125,0.00457763671875,-0.0091552734375,0.00640869140625,-0.02288818359375,0.0048828125,-0.01251220703125,-0.01007080078125,-0.008544921875,-0.0067138671875,-0.01007080078125,0.00579833984375,-0.0189208984375,0.0067138671875,-0.0006103515625,-0.00274658203125,-0.0079345703125,-0.003662109375,0.0006103515625,-0.01312255859375,0.0006103515625,-0.00762939453125,-0.00213623046875,-0.006103515625,-0.00457763671875,-0.00457763671875,0.07618225365877151,0.44912078976631165,-0.7509973049163818,-0.283692330121994,0.03764648362994194,0.013695068657398224,0.029770202934741974,0.014084777794778347,0.03428039699792862,0.05715179443359375,0.025347290560603142
-0.323486328125,-0.3228759765625,0.22857666015625,1.2744140625,2.18170166015625,1.0260009765625,0.78399658203125,1.55975341796875,-0.05767822265625,0.0421142578125,-0.08514404296875,0.0592041015625,-0.02044677734375,-0.00579833984375,-0.01800537109375,0.00244140625,-0.00823974609375,0.0006103515625,-0.0225830078125,0.0054931640625,-0.00701904296875,-0.00762939453125,-0.0103759765625,-0.01068115234375,-0.01373291015625,0.00457763671875,-0.01129150390625,0.01953125,0.00091552734375,-0.01708984375,-0.0067138671875,-0.00335693359375,0.00274658203125,-0.006103515625,-0.0018310546875,-0.0079345703125,-0.0054931640625,-0.00457763671875,-0.01190185546875,-0.006103515625,-0.11302673071622849,0.24312713742256165,-0.6183984279632568,-0.16665740311145782,0.01948852464556694,0.026359863579273224,0.040298767387866974,0.02369781583547592,0.00971374474465847,0.05486297607421875,0.03160339221358299
-0.3466796875,-0.3240966796875,0.26641845703125,1.34246826171875,2.1893310546875,1.026611328125,0.7763671875,1.5643310546875,-0.05035400390625,0.04486083984375,-0.0732421875,0.07904052734375,-0.0665283203125,-0.05645751953125,-0.0823974609375,-0.030517578125,-0.009765625,0.00823974609375,-0.02044677734375,0.00640869140625,-0.0146484375,-0.00274658203125,-0.0018310546875,-0.01251220703125,-0.0164794921875,0.0054931640625,-0.0164794921875,0.02105712890625,-0.00457763671875,-0.0054931640625,-0.00274658203125,-0.0079345703125,-0.0006103515625,-0.00518798828125,0.00152587890625,-0.00732421875,-0.00396728515625,-0.00457763671875,-0.00152587890625,-0.0091552734375,-0.2975054979324341,-0.35501739382743835,-0.44978880882263184,-0.05709930509328842,0.02086181566119194,0.021171875298023224,0.060440368950366974,0.02522369474172592,0.03199157863855362,0.07134246826171875,0.020769653841853142
-0.3558349609375,-0.323486328125,0.308837890625,1.38824462890625,2.18902587890625,1.03240966796875,0.7818603515625,1.56219482421875,-0.0762939453125,0.01434326171875,-0.093994140625,0.06378173828125,-0.12176513671875,-0.1019287109375,-0.1458740234375,-0.0677490234375,-0.01220703125,0.008544921875,-0.0189208984375,0.008544921875,-0.0030517578125,-0.0067138671875,-0.00030517578125,-0.00091552734375,-0.01373291015625,0.00640869140625,-0.01861572265625,0.01800537109375,-0.003662109375,-0.00579833984375,0.0018310546875,-0.00762939453125,0.001220703125,-0.0048828125,-0.00335693359375,-0.01068115234375,-0.001220703125,-0.00885009765625,-0.00457763671875,-0.0006103515625,-1.002156376838684,-0.9112002849578857,-0.29323363304138184,0.04070953279733658,0.013232422061264515,0.037346191704273224,0.031906433403491974,0.015305480919778347,0.05960998684167862,0.04143524169921875,0.022142944857478142
-0.37506103515625,-0.32135009765625,0.34942626953125,1.44073486328125,2.1905517578125,1.0357666015625,0.79254150390625,1.563720703125,-0.081787109375,0.01129150390625,-0.10284423828125,0.0592041015625,-0.12847900390625,-0.11749267578125,-0.15838623046875,-0.087890625,-0.01220703125,0.00213623046875,-0.02197265625,0.00579833984375,-0.00762939453125,-0.0006103515625,-0.00457763671875,-0.00579833984375,-0.01495361328125,0.00579833984375,-0.01495361328125,0.01861572265625,-0.00152587890625,-0.001220703125,-0.00701904296875,-0.00213623046875,-0.00244140625,-0.00701904296875,-0.003662109375,-0.00640869140625,-0.00518798828125,-0.0146484375,-0.0067138671875,-0.00396728515625,-1.374928593635559,-0.9182193279266357,-0.16887451708316803,0.08343414217233658,0.014605713076889515,-0.0038525389973074198,0.026260681450366974,0.02766510099172592,0.02298889122903347,0.02632904052734375,0.03572326526045799
-0.39703369140625,-0.330810546875,0.38909912109375,1.5008544921875,2.1990966796875,1.04034423828125,0.789794921875,1.5655517578125,-0.06317138671875,0.03509521484375,-0.0872802734375,0.062255859375,-0.018310546875,-0.0042724609375,-0.0201416015625,0.003662109375,-0.0103759765625,0.00732421875,-0.01800537109375,0.0103759765625,-0.0079345703125,0.0006103515625,0.008544921875,-0.00701904296875,-0.0164794921875,0.00946044921875,-0.01708984375,0.01708984375,-0.0030517578125,-0.00091552734375,-0.00335693359375,-0.00823974609375,0.0,-0.0103759765625,-0.0018310546875,-0.00152587890625,-0.00274658203125,-0.00457763671875,0.0079345703125,-0.00396728515625,-1.436116337776184,-1.1420657634735107,-0.07945800572633743,0.11685089021921158,0.013995361514389515,0.010643310844898224,0.019394226372241974,0.01637359708547592,0.01902160607278347,0.03243255615234375,0.023058472201228142
-0.42572021484375,-0.316162109375,0.43212890625,1.5679931640625,2.18841552734375,1.0443115234375,0.78094482421875,1.56524658203125,-0.05645751953125,0.0433349609375,-0.08209228515625,0.0714111328125,-0.0189208984375,-0.00457763671875,-0.00823974609375,0.001220703125,-0.01495361328125,0.00152587890625,-0.02471923828125,0.00762939453125,-0.00640869140625,-0.009765625,-0.0079345703125,-0.0054931640625,-0.0146484375,0.00823974609375,-0.015869140625,0.01922607421875,0.00244140625,-0.0030517578125,-0.00732421875,-0.001220703125,-0.00091552734375,-0.00335693359375,0.00213623046875,-0.008544921875,-0.001220703125,-0.0091552734375,-0.0115966796875,0.0054931640625,-1.167866826057434,-1.4750125408172607,-0.00026489258743822575,0.12722687423229218,0.01948852464556694,0.018425293266773224,0.035873718559741974,0.02583404630422592,0.02726135216653347,0.04647064208984375,0.024736938998103142
-0.43975830078125,-0.31097412109375,0.4742431640625,1.6168212890625,2.19940185546875,1.048583984375,0.79345703125,1.55059814453125,-0.054931640625,0.042724609375,-0.08514404296875,0.07171630859375,-0.01617431640625,0.00152587890625,-0.0115966796875,0.00457763671875,-0.009765625,0.00518798828125,-0.02288818359375,0.0054931640625,-0.00823974609375,-0.00396728515625,-0.00457763671875,-0.00579833984375,-0.0140380859375,0.00579833984375,-0.01861572265625,0.01983642578125,-0.001220703125,0.00030517578125,-0.001220703125,-0.00335693359375,0.0042724609375,-0.00640869140625,0.0006103515625,-0.0079345703125,-0.006103515625,-0.00396728515625,-0.00335693359375,-0.01220703125,-0.5788775682449341,-1.7287662029266357,0.04627441242337227,0.17742829024791718,0.01887817308306694,0.024833984673023224,0.040909118950366974,0.02293487638235092,0.03305969387292862,0.11360931396484375,0.018023071810603142
-0.458984375,-0.3240966796875,0.52276611328125,1.6778564453125,2.183837890625,1.05194091796875,0.79345703125,1.5704345703125,-0.05584716796875,0.04425048828125,-0.09063720703125,0.07110595703125,-0.01617431640625,0.01678466796875,-0.010986328125,0.0067138671875,-0.0140380859375,0.0091552734375,-0.0213623046875,0.00457763671875,-0.00518798828125,-0.009765625,-0.00579833984375,0.0006103515625,-0.0152587890625,0.00335693359375,-0.0201416015625,0.0152587890625,0.0006103515625,-0.00335693359375,-0.0030517578125,-0.00213623046875,0.00152587890625,-0.0054931640625,0.001220703125,-0.00823974609375,-0.0018310546875,-0.0042724609375,0.0,0.00152587890625,-0.013081665150821209,-1.5784671306610107,0.07435058802366257,0.19314484298229218,0.02315063402056694,0.016746826469898224,0.036941833794116974,0.03224273771047592,0.04328308254480362,0.14824676513671875,0.027941284701228142
-0.48095703125,-0.3228759765625,0.5718994140625,1.73980712890625,2.19207763671875,1.053466796875,0.792236328125,1.558837890625,-0.057373046875,0.0433349609375,-0.07568359375,0.069580078125,-0.018310546875,0.001220703125,-0.01068115234375,0.00091552734375,-0.01068115234375,0.0054931640625,-0.0164794921875,0.00762939453125,-0.00640869140625,-0.00335693359375,-0.00701904296875,-0.0079345703125,-0.0177001953125,0.00457763671875,-0.0177001953125,0.020751953125,-0.00396728515625,-0.00335693359375,-0.0048828125,-0.01129150390625,0.0030517578125,-0.0042724609375,-0.0030517578125,-0.00335693359375,-0.00396728515625,-0.00213623046875,-0.00335693359375,-0.00518798828125,0.11951721459627151,-1.2227847576141357,0.12989257276058197,0.24273590743541718,0.02162475511431694,0.030174560844898224,0.045791931450366974,0.010117492638528347,0.02665100060403347,0.09728240966796875,0.029161987826228142
-0.50384521484375,-0.3143310546875,0.61553955078125,1.8048095703125,2.18170166015625,1.0565185546875,0.79925537109375,1.55609130859375,-0.054931640625,0.042724609375,-0.07415771484375,0.07293701171875,-0.01861572265625,0.00244140625,-0.01129150390625,-0.00030517578125,-0.0103759765625,0.00457763671875,-0.02044677734375,0.00762939453125,-0.0054931640625,0.0,-0.006103515625,-0.0030517578125,-0.01861572265625,0.0054931640625,-0.01617431640625,0.0189208984375,-0.003662109375,-0.0042724609375,-0.00732421875,-0.00579833984375,0.00030517578125,-0.00640869140625,-0.0018310546875,-0.01068115234375,-0.00335693359375,-0.00091552734375,-0.003662109375,-0.0006103515625,0.024149781093001366,-0.8608462810516357,0.14332030713558197,0.22183136641979218,0.07396240532398224,0.022545166313648224,0.037247009575366974,0.03010650724172592,0.03016052208840847,0.08339691162109375,0.016039429232478142
-0.52520751953125,-0.31463623046875,0.65948486328125,1.8670654296875,2.17620849609375,1.05926513671875,0.7940673828125,1.55059814453125,-0.0543212890625,0.0439453125,-0.0750732421875,0.07171630859375,-0.01678466796875,-0.001220703125,-0.01220703125,0.001220703125,-0.01617431640625,0.00518798828125,-0.01708984375,0.00274658203125,-0.00823974609375,-0.00640869140625,-0.003662109375,-0.006103515625,-0.009765625,0.0091552734375,-0.01617431640625,0.02044677734375,0.0,-0.00213623046875,0.0042724609375,-0.0048828125,0.0,-0.01556396484375,-0.0006103515625,-0.009765625,-0.01708984375,-0.00640869140625,-0.00732421875,-0.0006103515625,0.20420348644256592,-0.5690982341766357,0.15476439893245697,0.22824005782604218,0.23692627251148224,0.024223633110523224,0.041519470512866974,0.02461334317922592,0.02115783654153347,0.04601287841796875,0.025805054232478142
-0.54351806640625,-0.3131103515625,0.7080078125,1.9281005859375,2.1710205078125,1.05438232421875,0.7916259765625,1.54937744140625,-0.05706787109375,0.04150390625,-0.06195068359375,0.0787353515625,-0.064697265625,-0.050048828125,-0.08758544921875,-0.0360107421875,-0.01007080078125,0.00701904296875,-0.02227783203125,0.0067138671875,-0.0054931640625,-0.00244140625,-0.00030517578125,-0.0048828125,-0.01556396484375,0.00457763671875,-0.01861572265625,0.01556396484375,-0.00335693359375,-0.0091552734375,-0.0042724609375,-0.00579833984375,-0.00030517578125,-0.00762939453125,-0.0042724609375,-0.00946044921875,0.00091552734375,-0.00640869140625,0.00030517578125,-0.006103515625,0.3824261426925659,-0.45984527468681335,0.15354369580745697,0.21877960860729218,0.20793457329273224,0.021629638969898224,0.032516784965991974,0.02385040372610092,0.03565368801355362,-0.00464630126953125,0.027941284701228142
-0.560302734375,-0.3070068359375,0.76507568359375,1.99127197265625,2.159423828125,1.0626220703125,0.7861328125,1.54083251953125,-0.07598876953125,0.01678466796875,-0.084228515625,0.0616455078125,-0.11871337890625,-0.10345458984375,-0.14739990234375,-0.074462890625,-0.0164794921875,0.0054931640625,-0.01983642578125,0.006103515625,-0.006103515625,-0.00732421875,-0.0067138671875,-0.0006103515625,-0.0115966796875,0.00457763671875,-0.018310546875,0.0128173828125,0.00640869140625,0.00091552734375,-0.00274658203125,0.0103759765625,-0.003662109375,-0.00823974609375,-0.00823974609375,-0.01068115234375,-0.00396728515625,-0.00701904296875,-0.0067138671875,-0.006103515625,0.4330853223800659,-0.39682647585868835,0.14713500440120697,0.22244171798229218,0.17772217094898224,0.023918457329273224,0.042282409965991974,0.02552887052297592,0.03199157863855362,0.00679779052734375,0.026567993685603142
-0.57525634765625,-0.3076171875,0.81634521484375,2.05047607421875,2.1563720703125,1.064453125,0.78460693359375,1.5374755859375,-0.07904052734375,0.0091552734375,-0.089111328125,0.06011962890625,-0.137939453125,-0.11810302734375,-0.1556396484375,-0.091552734375,-0.0115966796875,0.00274658203125,-0.01953125,0.003662109375,-0.01220703125,-0.00396728515625,-0.01068115234375,-0.00732421875,-0.0164794921875,0.0030517578125,-0.013427734375,0.01739501953125,-0.00152587890625,-0.001220703125,-0.003662109375,-0.00091552734375,0.0018310546875,-0.0128173828125,0.0006103515625,-0.00946044921875,0.00152587890625,-0.0048828125,-0.0018310546875,-0.0103759765625,0.17704284191131592,-0.26361724734306335,0.15781615674495697,0.22244171798229218,0.18916626274585724,0.035362549126148224,0.045334167778491974,0.02369781583547592,0.02726135216653347,0.06768035888671875,0.03541808947920799
-0.60028076171875,-0.30792236328125,0.86639404296875,2.12432861328125,2.154541015625,1.0614013671875,0.79254150390625,1.52862548828125,-0.0628662109375,0.0250244140625,-0.07415771484375,0.062255859375,-0.01861572265625,-0.0048828125,-0.01373291015625,0.003662109375,-0.02349853515625,0.00640869140625,-0.020751953125,0.0164794921875,-0.00732421875,-0.00732421875,-0.0299072265625,-0.00640869140625,-0.0201416015625,-0.00091552734375,-0.01861572265625,0.0177001953125,-0.00274658203125,-0.00030517578125,-0.0030517578125,0.00946044921875,0.003662109375,-0.00457763671875,0.00213623046875,-0.0103759765625,-0.00091552734375,-0.00732421875,-0.00335693359375,-0.0030517578125,0.07496155053377151,-0.25339385867118835,0.15766356885433197,0.19756989181041718,0.17970581352710724,0.039940185844898224,0.052658386528491974,0.02690216153860092,0.03397522121667862,0.11254119873046875,0.022295532748103142
-0.60760498046875,-0.3204345703125,0.9173583984375,2.17254638671875,2.14202880859375,1.065673828125,0.7843017578125,1.52374267578125,-0.05462646484375,0.037841796875,-0.06866455078125,0.0689697265625,-0.020751953125,0.0103759765625,-0.01007080078125,0.0018310546875,-0.01190185546875,0.00823974609375,-0.02227783203125,0.0079345703125,-0.00579833984375,-0.01007080078125,0.00335693359375,-0.00335693359375,-0.0115966796875,0.00946044921875,-0.0152587890625,0.01800537109375,0.0079345703125,-0.00152587890625,-0.0030517578125,-0.0140380859375,0.0006103515625,-0.008544921875,-0.00030517578125,-0.009765625,-0.00701904296875,0.0006103515625,-0.00946044921875,-0.00244140625,-0.058400269597768784,-0.26499053835868835,0.17811034619808197,0.21115021407604218,0.18443603813648224,0.050468750298023224,0.036331482231616974,0.02934356778860092,0.03733215481042862,0.12001800537109375,0.05052429065108299
-0.61920166015625,-0.3009033203125,0.96710205078125,2.2314453125,2.13623046875,1.06170654296875,0.77880859375,1.5179443359375,-0.05645751953125,0.040283203125,-0.06927490234375,0.064697265625,-0.013427734375,-0.00030517578125,0.00213623046875,0.00213623046875,-0.0146484375,0.00457763671875,-0.02044677734375,0.00457763671875,-0.008544921875,-0.00396728515625,-0.006103515625,-0.003662109375,-0.0140380859375,0.0048828125,-0.01708984375,0.0164794921875,-0.001220703125,-0.00030517578125,-0.00335693359375,-0.01678466796875,-0.0006103515625,-0.00946044921875,-0.001220703125,-0.01129150390625,-0.00396728515625,-0.00274658203125,-0.0042724609375,-0.01190185546875,-0.13637268543243408,-0.07959625124931335,0.17811034619808197,0.16461090743541718,0.19130249321460724,0.042534179985523224,0.038467712700366974,0.010422668419778347,0.02787170372903347,0.07256317138671875,0.03160339221358299
-0.63262939453125,-0.29876708984375,1.01837158203125,2.288818359375,2.12646484375,1.07421875,0.77301025390625,1.5118408203125,-0.0604248046875,0.04058837890625,-0.067138671875,0.06866455078125,-0.01800537109375,0.00274658203125,-0.010986328125,0.001220703125,-0.0115966796875,0.0030517578125,-0.0225830078125,0.0006103515625,-0.0079345703125,-0.00335693359375,-0.00396728515625,-0.0103759765625,-0.0177001953125,0.00396728515625,-0.01678466796875,0.01800537109375,-0.00244140625,-0.00091552734375,-0.00152587890625,-0.00213623046875,0.003662109375,-0.0030517578125,-0.0018310546875,-0.0079345703125,-0.0152587890625,-0.00701904296875,-0.00579833984375,-0.01922607421875,-0.14827454090118408,0.17751434445381165,0.19809935986995697,0.02697662264108658,0.20473022758960724,0.021934814751148224,0.049759216606616974,0.02110382169485092,0.02955017052590847,0.06935882568359375,0.05937438830733299
-0.64178466796875,-0.29296875,1.072998046875,2.34649658203125,2.1173095703125,1.06170654296875,0.7745361328125,1.4935302734375,-0.05279541015625,0.0360107421875,-0.07843017578125,0.068359375,-0.01678466796875,0.00335693359375,-0.0128173828125,0.0030517578125,-0.01220703125,0.0067138671875,-0.0164794921875,0.00762939453125,-0.00274658203125,-0.00152587890625,-0.01007080078125,-0.023193359375,-0.01678466796875,0.0042724609375,-0.02532958984375,0.0146484375,-0.00518798828125,-0.0201416015625,-0.0079345703125,-0.0042724609375,0.00030517578125,-0.00732421875,-0.00091552734375,-0.009765625,-0.0048828125,-0.00579833984375,-0.00579833984375,-0.00213623046875,0.013773803599178791,0.28753021359443665,0.17139647901058197,0.008971252478659153,0.20091553032398224,0.049248047173023224,0.054642029106616974,0.011338195763528347,0.03504333645105362,0.07134246826171875,0.03618102893233299
-0.66131591796875,-0.28839111328125,1.12518310546875,2.4072265625,2.1087646484375,1.0552978515625,0.7672119140625,1.4923095703125,-0.05157470703125,0.03936767578125,-0.06591796875,0.06927490234375,-0.02166748046875,-0.00244140625,-0.015869140625,0.00732421875,-0.01434326171875,0.0079345703125,-0.023193359375,0.00457763671875,-0.00579833984375,-0.0042724609375,-0.00457763671875,-0.00335693359375,-0.01708984375,0.00579833984375,-0.01495361328125,0.018310546875,0.00091552734375,-0.00274658203125,-0.006103515625,-0.00213623046875,0.00152587890625,-0.008544921875,-0.00091552734375,-0.01068115234375,-0.00152587890625,-0.00701904296875,-0.00274658203125,0.00091552734375,0.5814007520675659,0.45873382687568665,0.16163085401058197,0.005461730994284153,0.17604370415210724,0.041313476860523224,0.053268738090991974,0.01881500333547592,0.01566467247903347,0.07195281982421875,0.03694396838545799
-0.65521240234375,-0.2850341796875,1.1767578125,2.45758056640625,2.09869384765625,1.05255126953125,0.76263427734375,1.48040771484375,-0.04638671875,0.03814697265625,-0.06500244140625,0.0689697265625,-0.0152587890625,-0.0018310546875,-0.010986328125,0.00244140625,-0.01312255859375,0.00640869140625,-0.02044677734375,0.0067138671875,-0.003662109375,-0.00885009765625,-0.00244140625,-0.00732421875,-0.0146484375,0.00885009765625,-0.015869140625,0.018310546875,0.0091552734375,-0.00640869140625,-0.00518798828125,-0.01007080078125,-0.0018310546875,-0.00091552734375,-0.0030517578125,-0.0079345703125,-0.00518798828125,-0.00732421875,-0.0042724609375,0.001220703125,1.088297724723816,0.7597897052764893,0.15262816846370697,0.05078033357858658,0.16673584282398224,0.030784912407398224,0.045486755669116974,0.01789947599172592,0.02359924279153347,0.07225799560546875,0.03434997424483299
-0.665283203125,-0.28778076171875,1.2298583984375,2.51373291015625,2.09503173828125,1.0528564453125,0.760498046875,1.47186279296875,-0.05035400390625,0.0390625,-0.05279541015625,0.08148193359375,-0.06561279296875,-0.054931640625,-0.09490966796875,-0.0390625,-0.01861572265625,0.00244140625,-0.0213623046875,0.00640869140625,-0.00244140625,-0.006103515625,-0.0067138671875,-0.001220703125,-0.01617431640625,0.0079345703125,-0.01373291015625,0.01983642578125,-0.001220703125,-0.0103759765625,-0.010986328125,-0.00152587890625,0.001220703125,-0.00579833984375,-0.00244140625,-0.01007080078125,-0.00152587890625,-0.0030517578125,-0.003662109375,0.0048828125,1.039164423942566,1.1308834552764893,0.12272094935178757,0.05306915193796158,0.14598388969898224,0.037193603813648224,0.051285095512866974,0.02110382169485092,0.02588806115090847,0.06722259521484375,0.025805054232478142
-0.66864013671875,-0.27679443359375,1.2799072265625,2.56439208984375,2.07427978515625,1.04949951171875,0.75164794921875,1.4605712890625,-0.0689697265625,0.01556396484375,-0.0732421875,0.06591796875,-0.1153564453125,-0.0982666015625,-0.1397705078125,-0.0775146484375,-0.01129150390625,0.00457763671875,-0.02349853515625,0.00335693359375,-0.00762939453125,-0.00396728515625,-0.00030517578125,-0.00152587890625,-0.01861572265625,0.00885009765625,-0.01922607421875,0.0054931640625,-0.00091552734375,-0.00579833984375,-0.009765625,-0.00335693359375,0.00335693359375,0.00701904296875,-0.00030517578125,-0.01068115234375,-0.0042724609375,-0.00701904296875,-0.008544921875,-0.00274658203125,0.4489544630050659,1.4839718341827393,0.12027954310178757,0.07992462068796158,0.14079590141773224,0.020561523735523224,0.041061706840991974,0.06321807950735092,0.03794250637292862,0.07561492919921875,0.024431763216853142
-0.67291259765625,-0.2703857421875,1.32568359375,2.6123046875,2.06085205078125,1.03973388671875,0.748291015625,1.44561767578125,-0.0738525390625,0.00946044921875,-0.0775146484375,0.0628662109375,-0.1318359375,-0.1171875,-0.15289306640625,-0.0848388671875,-0.01495361328125,0.00457763671875,-0.01739501953125,0.0054931640625,-0.00335693359375,-0.00274658203125,0.01678466796875,-0.00457763671875,-0.01251220703125,-0.013427734375,-0.01708984375,0.01678466796875,-0.01312255859375,-0.0030517578125,-0.00640869140625,-0.00274658203125,-0.00091552734375,-0.00579833984375,0.00640869140625,-0.0091552734375,-0.00091552734375,-0.0128173828125,-0.00518798828125,-0.0054931640625,-0.14354431629180908,1.6293880939483643,0.11493896692991257,0.08694366365671158,0.13148804008960724,0.039787597954273224,0.046707458794116974,0.02919097989797592,0.04007873684167862,0.06600189208984375,0.027788696810603142
-0.67291259765625,-0.26580810546875,1.37847900390625,2.65625,2.04437255859375,1.03759765625,0.73516845703125,1.44012451171875,-0.0604248046875,0.0225830078125,-0.06439208984375,0.06134033203125,0.001220703125,-0.00091552734375,-0.0152587890625,0.0079345703125,-0.01190185546875,0.00701904296875,-0.023193359375,-0.0115966796875,-0.00823974609375,-0.0067138671875,0.0030517578125,-0.0042724609375,-0.0152587890625,0.00518798828125,-0.01373291015625,0.01800537109375,0.0,-0.00396728515625,-0.00640869140625,-0.00030517578125,0.0,-0.00885009765625,-0.00091552734375,-0.0115966796875,-0.00579833984375,-0.00640869140625,-0.00335693359375,-0.009765625,-0.2619525194168091,1.2918636798858643,0.10578369349241257,0.08862213045358658,0.11485596001148224,0.050773926079273224,0.056930847465991974,0.02888580411672592,0.04496154934167862,0.07622528076171875,0.03373962268233299
-0.67169189453125,-0.25970458984375,1.4276123046875,2.70751953125,2.03125,1.03424072265625,0.73394775390625,1.42333984375,-0.05096435546875,0.03570556640625,-0.069580078125,0.06683349609375,-0.01495361328125,-0.0103759765625,-0.01007080078125,-0.00152587890625,-0.01007080078125,0.00885009765625,-0.0213623046875,0.001220703125,-0.0030517578125,-0.006103515625,-0.00213623046875,-0.00244140625,-0.01495361328125,-0.0048828125,-0.01861572265625,0.0164794921875,-0.00091552734375,-0.0030517578125,-0.00946044921875,-0.003662109375,-0.00030517578125,-0.00946044921875,-0.00152587890625,-0.00823974609375,-0.00152587890625,-0.00244140625,-0.006103515625,-0.0018310546875,0.09296692162752151,0.7536861896514893,0.09922241419553757,0.08007720857858658,0.07609863579273224,0.06816894561052322,0.045944519340991974,-0.00010589599696686491,0.03382263332605362,0.06615447998046875,0.030230103060603142
-0.675048828125,-0.25665283203125,1.47125244140625,2.75238037109375,2.01568603515625,1.02569580078125,0.72998046875,1.4117431640625,-0.0469970703125,0.0347900390625,-0.05767822265625,0.06591796875,-0.013427734375,-0.00091552734375,-0.0146484375,-0.00152587890625,-0.01190185546875,0.006103515625,-0.0225830078125,0.00732421875,-0.00701904296875,-0.00885009765625,-0.003662109375,-0.003662109375,-0.01190185546875,0.0091552734375,-0.015869140625,0.01922607421875,-0.001220703125,-0.00701904296875,-0.00518798828125,0.00152587890625,-0.00091552734375,-0.0079345703125,0.0018310546875,-0.008544921875,-0.00213623046875,-0.01007080078125,-0.003662109375,-0.0030517578125,0.22266662120819092,0.29668548703193665,0.09220337122678757,0.06390289217233658,0.07960815727710724,0.11608154326677322,0.048080749809741974,0.03086944669485092,0.03351745754480362,0.06249237060546875,0.03373962268233299
-0.67474365234375,-0.25390625,1.52557373046875,2.7960205078125,1.99737548828125,1.0211181640625,0.72265625,1.396484375,-0.0469970703125,0.0335693359375,-0.05706787109375,0.06439208984375,-0.013427734375,0.0018310546875,-0.010986328125,-0.00152587890625,-0.01129150390625,0.00701904296875,-0.0238037109375,0.00579833984375,-0.003662109375,-0.00457763671875,-0.00457763671875,-0.00274658203125,-0.00274658203125,0.006103515625,-0.01617431640625,0.00946044921875,0.00152587890625,-0.00335693359375,-0.00213623046875,-0.00396728515625,0.00335693359375,-0.01129150390625,-0.0018310546875,-0.00946044921875,0.003662109375,-0.00244140625,-0.0048828125,-0.0128173828125,-0.11714660376310349,0.07467010617256165,0.07328247278928757,0.03842071443796158,0.07335205376148224,0.11486084014177322,0.047012634575366974,0.03178497403860092,0.03138122707605362,0.06340789794921875,0.022142944857478142
-0.6707763671875,-0.240478515625,1.57135009765625,2.8375244140625,1.976318359375,1.01715087890625,0.7147216796875,1.3861083984375,-0.0506591796875,0.0323486328125,-0.04791259765625,0.067138671875,-0.01556396484375,0.00579833984375,-0.00885009765625,0.0018310546875,-0.0115966796875,0.00579833984375,-0.0177001953125,0.00732421875,-0.00457763671875,-0.00518798828125,-0.0054931640625,-0.006103515625,-0.0140380859375,0.0079345703125,-0.01373291015625,0.02044677734375,-0.0018310546875,-0.01251220703125,-0.0054931640625,-0.0067138671875,-0.00274658203125,-0.0091552734375,-0.00335693359375,-0.01434326171875,-0.00457763671875,-0.00335693359375,-0.0042724609375,-0.0018310546875,-0.23997986316680908,0.07528045773506165,0.06092284992337227,0.06787017732858658,0.09624023735523224,0.09319335967302322,0.020004577934741974,0.03285308927297592,0.03595886379480362,0.04784393310546875,0.03297668322920799
-0.67474365234375,-0.23895263671875,1.61529541015625,2.86590576171875,1.9622802734375,1.01287841796875,0.70953369140625,1.37176513671875,-0.0482177734375,0.03265380859375,-0.0543212890625,0.0640869140625,-0.01251220703125,-0.0018310546875,-0.01129150390625,0.0006103515625,-0.010986328125,0.00640869140625,-0.02349853515625,0.00732421875,-0.00457763671875,-0.013427734375,-0.00579833984375,-0.00579833984375,-0.0164794921875,0.00732421875,-0.01739501953125,0.0140380859375,-0.0018310546875,-0.003662109375,-0.00244140625,-0.0042724609375,-0.0006103515625,-0.0054931640625,0.00030517578125,-0.009765625,-0.001220703125,-0.00335693359375,-0.00152587890625,-0.0030517578125,-0.3242083787918091,0.052850037813186646,0.06168578937649727,0.02865508943796158,0.10921020805835724,0.06694824248552322,0.042892761528491974,0.04124542325735092,0.03580627590417862,0.06172943115234375,0.030230103060603142
-0.6640625,-0.234375,1.6552734375,2.9071044921875,1.9427490234375,1.01226806640625,0.7000732421875,1.3580322265625,-0.06103515625,0.03387451171875,-0.0506591796875,0.07476806640625,-0.015869140625,0.0006103515625,-0.009765625,0.0006103515625,-0.00823974609375,0.0067138671875,-0.02044677734375,0.006103515625,-0.01007080078125,-0.00579833984375,-0.00244140625,-0.0054931640625,-0.0146484375,0.01068115234375,-0.01922607421875,0.0164794921875,0.00701904296875,-0.00213623046875,-0.00244140625,-0.00762939453125,0.0048828125,-0.008544921875,-0.00335693359375,-0.0079345703125,-0.00701904296875,-0.0018310546875,-0.00091552734375,-0.00091552734375,-0.7564898729324341,0.14409759640693665,0.07511352747678757,0.03582672029733658,0.09868164360523224,0.06633789092302322,0.048385925590991974,0.05329986661672592,0.06388244777917862,0.06172943115234375,0.03984313830733299
-0.65338134765625,-0.22705078125,1.6937255859375,2.940673828125,1.9256591796875,0.98297119140625,0.6903076171875,1.34185791015625,-0.03082275390625,0.032958984375,-0.042724609375,0.0885009765625,-0.068359375,-0.0543212890625,-0.08453369140625,-0.040283203125,-0.01495361328125,0.008544921875,-0.02166748046875,0.0067138671875,0.0006103515625,-0.00701904296875,-0.0091552734375,-0.0030517578125,-0.0152587890625,0.00335693359375,-0.01373291015625,0.01708984375,-0.0079345703125,0.00885009765625,-0.00701904296875,-0.0091552734375,0.010986328125,-0.00732421875,-0.00244140625,-0.00701904296875,-0.00396728515625,-0.00518798828125,-0.01708984375,-0.0048828125,-0.8439227342605591,0.19902923703193665,0.07236694544553757,0.03475860506296158,0.06541748344898224,0.056877441704273224,0.046554870903491974,0.03941436856985092,0.03672180324792862,0.05364227294921875,0.03953796252608299
-0.6488037109375,-0.22369384765625,1.7462158203125,2.96722412109375,1.90338134765625,0.985107421875,0.6829833984375,1.3299560546875,-0.0701904296875,0.00885009765625,-0.0653076171875,0.06439208984375,-0.11749267578125,-0.10650634765625,-0.15167236328125,-0.076904296875,-0.01373291015625,0.0030517578125,-0.02227783203125,0.00640869140625,-0.0067138671875,-0.00244140625,-0.00274658203125,-0.0042724609375,-0.01556396484375,0.003662109375,-0.01739501953125,0.01556396484375,-0.0067138671875,-0.00579833984375,-0.00885009765625,-0.00640869140625,0.00091552734375,-0.0042724609375,-0.0030517578125,-0.008544921875,-0.003662109375,-0.00152587890625,0.001220703125,-0.01983642578125,-0.5828448534011841,-0.24881622195243835,0.06412719935178757,0.02789214998483658,0.02269287034869194,0.030174560844898224,0.049606628715991974,0.04231353849172592,0.02634582482278347,0.05333709716796875,0.03648620471358299
-0.63995361328125,-0.2154541015625,1.7803955078125,2.9925537109375,1.88262939453125,0.9814453125,0.66650390625,1.312255859375,-0.0732421875,0.01312255859375,-0.06683349609375,0.054931640625,-0.1312255859375,-0.11444091796875,-0.15594482421875,-0.089111328125,-0.01495361328125,0.00701904296875,-0.018310546875,0.00579833984375,-0.00701904296875,-0.00701904296875,-0.00244140625,-0.0006103515625,-0.01434326171875,0.00579833984375,-0.01708984375,0.0079345703125,-0.0042724609375,-0.00701904296875,-0.015869140625,0.0,0.00030517578125,-0.0048828125,-0.0018310546875,-0.0103759765625,-0.003662109375,-0.00732421875,-0.00457763671875,-0.00244140625,-0.4186602830886841,-1.0444095134735107,0.07511352747678757,0.02361968904733658,0.05260009691119194,0.010490722954273224,0.057998962700366974,0.02507110685110092,0.03153381496667862,0.07530975341796875,0.03923278674483299
-0.631103515625,-0.21270751953125,1.8145751953125,3.0181884765625,1.86248779296875,0.960693359375,0.665283203125,1.29425048828125,-0.04974365234375,0.02410888671875,-0.05523681640625,0.05462646484375,-0.0146484375,0.0018310546875,-0.01007080078125,-0.00213623046875,-0.010986328125,0.00091552734375,-0.0213623046875,-0.00518798828125,-0.00946044921875,-0.00396728515625,-0.001220703125,-0.00701904296875,-0.0115966796875,0.00701904296875,-0.01556396484375,0.0189208984375,-0.00518798828125,-0.001220703125,0.00091552734375,-0.0030517578125,0.00091552734375,-0.00885009765625,-0.0042724609375,-0.00732421875,-0.0067138671875,-0.00732421875,-0.00213623046875,-0.00213623046875,-0.2811785936355591,-1.4159610271453857,0.07419800013303757,0.03369048982858658,0.06328125298023224,-0.004920654464513063,0.055862732231616974,0.03178497403860092,-0.0017303467029705644,0.04677581787109375,0.03892761096358299
-0.6280517578125,-0.206298828125,1.85455322265625,3.046875,1.8389892578125,0.958251953125,0.65673828125,1.27685546875,-0.0469970703125,0.02777099609375,-0.04974365234375,0.0640869140625,-0.0152587890625,0.001220703125,-0.010986328125,-0.0018310546875,-0.01220703125,0.00946044921875,-0.02105712890625,0.0018310546875,-0.00091552734375,-0.006103515625,-0.00823974609375,-0.00274658203125,-0.0177001953125,0.00396728515625,-0.0189208984375,0.015869140625,0.0006103515625,-0.00396728515625,-0.0091552734375,0.001220703125,0.00152587890625,-0.00762939453125,0.0,-0.00885009765625,-0.00518798828125,-0.00244140625,-0.0067138671875,0.00030517578125,-0.2698870897293091,-1.3694217205047607,0.07557129114866257,0.02743438631296158,0.06434936821460724,-0.012702636420726776,0.053726501762866974,0.05162139981985092,0.02466735802590847,0.04753875732421875,0.03755431994795799
-0.6280517578125,-0.2001953125,1.8939208984375,3.05084228515625,1.8121337890625,0.94970703125,0.65460205078125,1.2603759765625,-0.0469970703125,0.0341796875,-0.04486083984375,0.06378173828125,-0.0335693359375,-0.00213623046875,-0.01068115234375,0.0018310546875,-0.01220703125,0.00396728515625,-0.02197265625,0.0042724609375,-0.0048828125,-0.00762939453125,-0.0054931640625,-0.00091552734375,-0.0140380859375,0.0054931640625,-0.01739501953125,0.0177001953125,-0.00244140625,-0.0048828125,-0.00579833984375,-0.006103515625,-0.0018310546875,-0.00732421875,-0.00274658203125,-0.0115966796875,-0.00396728515625,-0.0030517578125,-0.00152587890625,-0.001220703125,-0.2796527147293091,-1.0967471599578857,0.11051391810178757,0.04040435701608658,0.06663818657398224,0.0001147460934589617,0.049759216606616974,0.04780670255422592,0.04374084621667862,0.05104827880859375,0.03404479846358299
-0.606689453125,-0.19989013671875,1.91986083984375,3.06854248046875,1.78985595703125,0.93841552734375,0.64300537109375,1.24176025390625,-0.047607421875,0.03204345703125,-0.04669189453125,0.0628662109375,-0.0164794921875,-0.00030517578125,-0.00946044921875,-0.0006103515625,-0.01068115234375,-0.00946044921875,-0.0225830078125,0.00396728515625,0.0030517578125,-0.00335693359375,-0.008544921875,-0.00701904296875,-0.0152587890625,0.001220703125,-0.01800537109375,0.01739501953125,-0.0018310546875,-0.0030517578125,-0.003662109375,-0.0018310546875,0.0048828125,-0.01617431640625,0.00091552734375,-0.01190185546875,-0.0079345703125,-0.0030517578125,-0.0018310546875,-0.00579833984375,-0.4378863573074341,-0.7612063884735107,0.08442138880491257,0.02407745271921158,0.06953735649585724,0.011101074516773224,0.07600433379411697,0.05406280606985092,0.04358825832605362,0.00328826904296875,0.03389221057295799
-0.59844970703125,-0.1959228515625,1.9512939453125,3.0889892578125,1.76422119140625,0.92803955078125,0.62713623046875,1.22222900390625,-0.03997802734375,0.0274658203125,-0.04547119140625,0.0732421875,-0.01495361328125,0.0,-0.0128173828125,0.001220703125,-0.01251220703125,0.00457763671875,-0.01953125,0.01190185546875,-0.0030517578125,-0.00640869140625,-0.009765625,-0.0048828125,-0.01556396484375,0.00732421875,-0.0189208984375,0.0152587890625,-0.00518798828125,-0.0091552734375,-0.00579833984375,-0.00213623046875,0.00244140625,-0.0054931640625,-0.00274658203125,-0.00701904296875,-0.0018310546875,-0.00640869140625,-0.01312255859375,0.0006103515625,-0.5550738573074341,-0.7383182048797607,0.07648681849241257,0.04238799959421158,0.05473632737994194,-0.011481933295726776,0.043808288872241974,0.04856964200735092,0.02558288536965847,0.05867767333984375,0.03755431994795799
-0.58624267578125,-0.17974853515625,1.9793701171875,3.095703125,1.74285888671875,0.91888427734375,0.61767578125,1.207275390625,-0.0457763671875,0.0262451171875,-0.04486083984375,0.0592041015625,-0.01434326171875,-0.00030517578125,-0.00946044921875,-0.00091552734375,-0.0146484375,0.00732421875,-0.02044677734375,0.00885009765625,-0.00213623046875,-0.0048828125,-0.00244140625,0.003662109375,-0.0140380859375,0.00457763671875,-0.0128173828125,0.01739501953125,-0.00396728515625,-0.01708984375,-0.00335693359375,-0.00579833984375,-0.00091552734375,-0.00823974609375,-0.00152587890625,-0.0146484375,-0.00335693359375,-0.00640869140625,-0.01068115234375,-0.0030517578125,-0.6885882616043091,-0.7992007732391357,0.07999633997678757,0.03842071443796158,0.04909057542681694,0.014305420219898224,0.050979919731616974,0.04917999356985092,0.03397522121667862,0.26512908935546875,0.03557067736983299
-0.57525634765625,-0.18402099609375,2.00286865234375,3.1060791015625,1.71142578125,0.90179443359375,0.6048583984375,1.19171142578125,-0.04486083984375,0.02838134765625,-0.04425048828125,0.06195068359375,-0.01220703125,-0.00274658203125,-0.009765625,-0.00457763671875,-0.0128173828125,0.00213623046875,-0.0225830078125,0.00518798828125,-0.0079345703125,-0.01007080078125,-0.00579833984375,-0.0079345703125,-0.018310546875,0.00213623046875,-0.0140380859375,0.01953125,-0.00213623046875,0.0018310546875,-0.00274658203125,0.00091552734375,0.0054931640625,-0.00640869140625,-0.00274658203125,-0.0079345703125,-0.00701904296875,-0.003662109375,-0.00213623046875,-0.003662109375,-0.7336016893386841,-0.6896426677703857,0.07465576380491257,0.05856231600046158,0.03566284105181694,0.016746826469898224,0.061508484184741974,0.03071685880422592,0.02619323693215847,0.25460052490234375,0.03846984729170799
-0.55755615234375,-0.1812744140625,2.0306396484375,3.1036376953125,1.68304443359375,0.8929443359375,0.59814453125,1.16943359375,-0.0384521484375,0.028076171875,-0.02716064453125,0.0726318359375,-0.06500244140625,-0.0579833984375,-0.07965087890625,-0.040283203125,-0.01251220703125,0.0115966796875,-0.0177001953125,0.003662109375,-0.01068115234375,-0.00732421875,-0.01007080078125,-0.0018310546875,-0.015869140625,0.0042724609375,-0.01861572265625,0.0177001953125,0.00030517578125,0.00274658203125,-0.00396728515625,-0.00457763671875,0.00030517578125,-0.00244140625,0.001220703125,-0.00732421875,-0.01556396484375,-0.00762939453125,-0.00335693359375,-0.01861572265625,-0.5347796678543091,-0.5416324138641357,0.07160400599241257,0.07626251131296158,0.02986450120806694,0.026054687798023224,0.026565857231616974,0.02919097989797592,0.02466735802590847,0.14672088623046875,0.030077515169978142
-0.5548095703125,-0.177001953125,2.05902099609375,3.11859130859375,1.6656494140625,0.87677001953125,0.5853271484375,1.1505126953125,-0.06256103515625,0.0042724609375,-0.05340576171875,0.05615234375,-0.113525390625,-0.10467529296875,-0.14495849609375,-0.07476806640625,-0.010986328125,0.008544921875,-0.0213623046875,0.0103759765625,-0.00335693359375,-0.0030517578125,-0.0091552734375,-0.003662109375,-0.01678466796875,-0.0042724609375,-0.01495361328125,0.0177001953125,-0.0042724609375,-0.008544921875,-0.00274658203125,-0.00396728515625,-0.00030517578125,-0.0079345703125,-0.00396728515625,-0.0067138671875,-0.00152587890625,-0.0030517578125,0.003662109375,-0.0042724609375,-0.3303118944168091,-0.33869048953056335,0.05909179523587227,0.05200103670358658,0.06221313402056694,0.042076416313648224,0.032059021294116974,0.02201934903860092,0.02558288536965847,0.06569671630859375,0.03709655627608299
-0.546875,-0.177001953125,2.0648193359375,3.1243896484375,1.6278076171875,0.87249755859375,0.57525634765625,1.12823486328125,-0.0543212890625,-0.0018310546875,-0.05645751953125,0.0506591796875,-0.12786865234375,-0.11688232421875,-0.1580810546875,-0.08514404296875,-0.01129150390625,0.00335693359375,-0.02471923828125,0.0018310546875,-0.01190185546875,-0.01373291015625,-0.0048828125,-0.0067138671875,-0.0067138671875,0.0048828125,-0.0140380859375,0.035400390625,-0.0030517578125,-0.00030517578125,-0.00244140625,-0.00457763671875,0.001220703125,-0.0079345703125,-0.001220703125,-0.0128173828125,-0.00823974609375,-0.00732421875,-0.00396728515625,-0.00579833984375,-0.13881409168243408,-0.21982452273368835,0.06183837726712227,0.05139068514108658,0.06297607719898224,0.050010986626148224,0.045639343559741974,0.02797027677297592,0.02451477013528347,0.02342987060546875,0.019396362826228142
-0.5230712890625,-0.17242431640625,2.09991455078125,3.13079833984375,1.5972900390625,0.85357666015625,0.56732177734375,1.11083984375,-0.0494384765625,0.0054931640625,-0.04791259765625,0.0518798828125,-0.0091552734375,-0.003662109375,-0.00762939453125,0.00579833984375,-0.01739501953125,0.00335693359375,-0.0299072265625,0.0048828125,-0.01068115234375,-0.023193359375,-0.0091552734375,-0.0079345703125,-0.01861572265625,0.0018310546875,-0.01708984375,0.009765625,-0.00640869140625,0.00213623046875,-0.001220703125,-0.006103515625,0.00030517578125,-0.0042724609375,-0.00213623046875,-0.00823974609375,0.00640869140625,-0.0067138671875,-0.0030517578125,-0.01556396484375,-0.06831847876310349,-0.10797759890556335,0.07999633997678757,0.04605010896921158,0.08479614555835724,0.08281738311052322,0.048233337700366974,0.01835723966360092,0.05472717434167862,-0.03485870361328125,0.031145630404353142
-0.53253173828125,-0.1702880859375,2.117919921875,3.1219482421875,1.57012939453125,0.84259033203125,0.55267333984375,1.08795166015625,-0.040283203125,0.023193359375,-0.0372314453125,0.0543212890625,-0.0146484375,0.00030517578125,-0.00762939453125,-0.0042724609375,-0.01434326171875,-0.0238037109375,-0.02471923828125,0.00244140625,-0.01983642578125,-0.003662109375,-0.00640869140625,-0.0048828125,-0.0152587890625,0.00518798828125,-0.01617431640625,0.0189208984375,-0.00152587890625,0.001220703125,-0.0030517578125,-0.0054931640625,-0.0006103515625,-0.00518798828125,-0.0030517578125,-0.00701904296875,0.00030517578125,-0.0067138671875,-0.00579833984375,-0.001220703125,-0.029866332188248634,0.004937438759952784,0.04139159992337227,0.005919494666159153,0.05946655198931694,0.044975586235523224,0.06501800566911697,0.02995391935110092,0.03122863732278347,-0.08658599853515625,0.03236633166670799
-0.50994873046875,-0.1702880859375,2.1343994140625,3.11920166015625,1.53839111328125,0.828857421875,0.54290771484375,1.0650634765625,-0.03997802734375,0.02105712890625,-0.04669189453125,0.05523681640625,-0.01373291015625,0.00396728515625,-0.00640869140625,-0.00244140625,-0.013427734375,0.00946044921875,-0.018310546875,0.00396728515625,-0.0067138671875,-0.0054931640625,-0.010986328125,-0.00396728515625,-0.01922607421875,0.00823974609375,-0.0177001953125,0.02044677734375,-0.0146484375,-0.003662109375,-0.00823974609375,-0.0030517578125,0.00152587890625,-0.0079345703125,-0.00152587890625,-0.0115966796875,-0.0006103515625,-0.0042724609375,-0.00457763671875,-0.0018310546875,0.12638366222381592,0.035149842500686646,0.04352783039212227,0.010497131384909153,0.06083984300494194,0.045128174126148224,0.040756531059741974,-0.006514587439596653,0.02893981896340847,-0.11481475830078125,0.028551636263728142
-0.51361083984375,-0.166015625,2.1502685546875,3.11279296875,1.50421142578125,0.81085205078125,0.52978515625,1.04400634765625,-0.03936767578125,0.03143310546875,-0.0323486328125,0.0543212890625,-0.01190185546875,-0.0018310546875,-0.00762939453125,0.0,-0.01068115234375,0.00244140625,-0.020751953125,0.00152587890625,-0.00518798828125,-0.006103515625,-0.025634765625,-0.0054931640625,-0.01373291015625,0.01678466796875,-0.01434326171875,0.01861572265625,0.00701904296875,0.00091552734375,-0.00274658203125,-0.00457763671875,0.00152587890625,-0.009765625,-0.00213623046875,-0.00885009765625,-0.0048828125,-0.00457763671875,-0.00518798828125,-0.00701904296875,0.13660705089569092,0.10259369015693665,0.019876709207892418,0.02957061678171158,0.07731933891773224,0.046043701469898224,0.045486755669116974,0.01820465177297592,0.02268371544778347,-0.15479278564453125,0.03862243518233299
-0.49957275390625,-0.1611328125,2.1636962890625,3.1134033203125,1.470947265625,0.80810546875,0.5224609375,1.02294921875,-0.04425048828125,0.0189208984375,-0.0311279296875,0.05462646484375,-0.00823974609375,-0.00213623046875,-0.00335693359375,-0.0042724609375,-0.01220703125,0.003662109375,-0.02349853515625,0.0030517578125,-0.00579833984375,-0.00640869140625,-0.00274658203125,-0.00244140625,-0.0146484375,0.0067138671875,-0.0146484375,0.0201416015625,-0.0042724609375,-0.00274658203125,-0.00579833984375,-0.0042724609375,0.00152587890625,-0.00518798828125,-0.0054931640625,-0.0103759765625,-0.0079345703125,-0.008544921875,-0.00152587890625,-0.00152587890625,0.035288695245981216,0.21260955929756165,0.03895019367337227,0.02606109529733658,0.04725952073931694,0.048485107719898224,0.051285095512866974,0.02873321622610092,0.02207336388528347,-0.19828033447265625,0.03557067736983299
-0.49530029296875,-0.15228271484375,2.1783447265625,3.10882568359375,1.45477294921875,0.78643798828125,0.51177978515625,1.0040283203125,-0.0335693359375,0.01861572265625,-0.02288818359375,0.05279541015625,-0.01068115234375,-0.00396728515625,-0.00885009765625,0.0006103515625,-0.0152587890625,0.00274658203125,-0.02288818359375,0.0054931640625,-0.00885009765625,-0.00946044921875,-0.00213623046875,-0.00396728515625,-0.0152587890625,0.00701904296875,-0.02105712890625,0.02349853515625,-0.00335693359375,-0.00152587890625,0.008544921875,-0.00213623046875,0.00030517578125,-0.015869140625,-0.0042724609375,-0.0091552734375,0.00091552734375,-0.0067138671875,-0.00335693359375,-0.0030517578125,-0.11378967016935349,0.23183563351631165,0.04017089679837227,0.03018096834421158,0.07548828423023224,0.049553222954273224,0.044266052544116974,0.03849884122610092,0.02222595177590847,-0.15555572509765625,0.03831725940108299
-0.48736572265625,-0.15533447265625,2.18719482421875,3.104248046875,1.4080810546875,0.7666015625,0.4998779296875,0.97991943359375,-0.03326416015625,0.00244140625,-0.0323486328125,0.05218505859375,-0.01312255859375,-0.00701904296875,-0.00518798828125,-0.00335693359375,-0.0128173828125,0.003662109375,-0.018310546875,0.0042724609375,-0.00213623046875,-0.02685546875,-0.00946044921875,-0.0030517578125,-0.01434326171875,0.00762939453125,-0.0164794921875,0.01617431640625,-0.001220703125,-0.0006103515625,-0.00396728515625,0.0,0.0006103515625,-0.00732421875,-0.02532958984375,-0.0140380859375,-0.00518798828125,-0.0030517578125,-0.003662109375,-0.00640869140625,-0.22426331043243408,0.22878387570381165,0.026895752176642418,0.008971252478659153,0.07091064751148224,0.051231689751148224,0.040603943169116974,0.02476593106985092,0.02253112755715847,0.04311370849609375,0.03297668322920799
-0.47454833984375,-0.152587890625,2.1942138671875,3.0963134765625,1.37054443359375,0.75225830078125,0.48492431640625,0.94940185546875,-0.0311279296875,0.0177001953125,-0.0213623046875,0.0592041015625,-0.0640869140625,-0.05859375,-0.08453369140625,-0.04364013671875,-0.01220703125,0.0054931640625,-0.02166748046875,0.00335693359375,-0.00885009765625,-0.0091552734375,-0.0067138671875,-0.00701904296875,-0.0146484375,0.006103515625,-0.02227783203125,0.01983642578125,-0.001220703125,-0.01953125,-0.00457763671875,-0.00091552734375,0.0115966796875,-0.00640869140625,0.0006103515625,-0.00701904296875,-0.00244140625,-0.00640869140625,-0.0042724609375,0.00030517578125,-0.14140808582305908,0.23793914914131165,0.04368041828274727,0.04116729646921158,0.06114501878619194,0.07076293975114822,0.046402283012866974,0.009354553185403347,0.02176818810403347,0.17754364013671875,0.028551636263728142
-0.4681396484375,-0.135498046875,2.1929931640625,3.0682373046875,1.343994140625,0.73944091796875,0.4742431640625,0.9344482421875,-0.05584716796875,-0.0067138671875,-0.04974365234375,0.04058837890625,-0.1177978515625,-0.1251220703125,-0.14007568359375,-0.08148193359375,-0.01312255859375,0.00396728515625,-0.0225830078125,0.00335693359375,-0.0018310546875,-0.0048828125,-0.0018310546875,-0.00335693359375,-0.0146484375,0.00579833984375,-0.015869140625,0.01678466796875,-0.00274658203125,-0.0018310546875,-0.0079345703125,-0.0030517578125,-0.00274658203125,-0.00762939453125,-0.003662109375,-0.0103759765625,-0.00213623046875,-0.00457763671875,-0.0054931640625,0.0006103515625,-0.038716431707143784,0.30080536007881165,0.009348144754767418,0.04543975740671158,0.06938476860523224,0.07442504912614822,0.08271820098161697,0.01988311856985092,0.01902160607278347,0.12535858154296875,0.06471496820449829
-0.46173095703125,-0.14739990234375,2.19390869140625,3.0535888671875,1.3043212890625,0.72967529296875,0.46051025390625,0.9051513671875,-0.057373046875,-0.009765625,-0.04486083984375,0.02593994140625,-0.126953125,-0.1171875,-0.16693115234375,-0.0921630859375,-0.00946044921875,0.00732421875,-0.0335693359375,0.00244140625,-0.0048828125,-0.0250244140625,-0.00579833984375,-0.0054931640625,-0.0042724609375,0.0048828125,-0.01739501953125,0.01861572265625,-0.0006103515625,-0.0042724609375,-0.00823974609375,-0.0030517578125,0.00030517578125,-0.0030517578125,-0.0030517578125,-0.00732421875,0.0006103515625,-0.00579833984375,-0.00335693359375,-0.0006103515625,0.011332397349178791,0.35695770382881165,0.021402588114142418,0.04040435701608658,0.08494873344898224,0.06389648467302322,0.041977234184741974,0.01988311856985092,0.02817687951028347,0.15663909912109375,0.03404479846358299
-0.452880859375,-0.1446533203125,2.1783447265625,3.03192138671875,1.27197265625,0.69854736328125,0.45013427734375,0.88226318359375,-0.04150390625,0.0048828125,-0.03082275390625,0.037841796875,-0.01861572265625,-0.0048828125,-0.00579833984375,-0.00762939453125,-0.015869140625,0.01068115234375,-0.0189208984375,0.00640869140625,-0.00244140625,-0.00335693359375,-0.0006103515625,-0.00335693359375,-0.01495361328125,0.00762939453125,-0.018310546875,0.01800537109375,-0.001220703125,-0.00701904296875,0.0054931640625,-0.0091552734375,-0.00091552734375,-0.00457763671875,-0.00244140625,-0.0115966796875,-0.00396728515625,-0.0054931640625,-0.0042724609375,0.00091552734375,0.14179503917694092,0.32216766476631165,0.008432617411017418,0.06329254060983658,0.06312866508960724,0.06557495146989822,0.044723816215991974,0.02705474942922592,0.02146301232278347,0.16136932373046875,0.0052056885324418545
-0.440673828125,-0.1416015625,2.18536376953125,3.00323486328125,1.2371826171875,0.6927490234375,0.43975830078125,0.86151123046875,-0.0311279296875,0.0140380859375,-0.029296875,0.04241943359375,-0.01068115234375,-0.0091552734375,-0.00823974609375,-0.00213623046875,-0.01251220703125,-0.0048828125,-0.01983642578125,0.00762939453125,-0.0018310546875,-0.00457763671875,-0.0042724609375,-0.00762939453125,-0.01495361328125,0.00640869140625,-0.01708984375,0.018310546875,-0.00335693359375,-0.0067138671875,-0.0030517578125,-0.00579833984375,-0.0006103515625,-0.00213623046875,-0.00335693359375,-0.00640869140625,0.0018310546875,-0.0018310546875,-0.0030517578125,0.0152587890625,0.3020123243331909,0.24526336789131165,0.023081054911017418,0.03964141756296158,0.05885620042681694,0.055961914360523224,0.044723816215991974,0.03758331388235092,0.02283630333840847,0.15267181396484375,0.03846984729170799
-0.43487548828125,-0.14007568359375,2.1759033203125,2.97332763671875,1.20330810546875,0.67657470703125,0.42449951171875,0.8380126953125,-0.0299072265625,0.01007080078125,-0.02105712890625,0.03631591796875,-0.01953125,-0.00396728515625,-0.00640869140625,-0.00823974609375,-0.01007080078125,0.00213623046875,-0.02105712890625,0.0048828125,-0.00885009765625,-0.0018310546875,-0.0067138671875,-0.00885009765625,-0.01373291015625,0.00396728515625,-0.01556396484375,0.01922607421875,-0.0030517578125,-0.00091552734375,-0.0079345703125,-0.00579833984375,0.00518798828125,-0.0048828125,-0.001220703125,-0.01007080078125,-0.00457763671875,-0.00701904296875,0.00091552734375,-0.01007080078125,0.3433636426925659,0.23915985226631165,0.0035498046781867743,0.06436065584421158,0.06068725511431694,0.049400635063648224,0.041977234184741974,0.04414459317922592,0.0043731690384447575,0.13817596435546875,0.024279175326228142
-0.42266845703125,-0.13427734375,2.14813232421875,2.93365478515625,1.17218017578125,0.65704345703125,0.416259765625,0.8184814453125,-0.029296875,0.01800537109375,-0.0189208984375,0.03936767578125,-0.02288818359375,-0.00518798828125,-0.00091552734375,-0.0018310546875,-0.01556396484375,0.0048828125,-0.01922607421875,0.00518798828125,-0.006103515625,-0.00762939453125,-0.00274658203125,-0.006103515625,-0.018310546875,0.00701904296875,-0.01983642578125,0.01708984375,-0.00091552734375,-0.003662109375,-0.00274658203125,-0.018310546875,0.0,-0.00579833984375,-0.00244140625,-0.01007080078125,-0.00213623046875,-0.006103515625,-0.00274658203125,0.0006103515625,0.3599957227706909,0.28203704953193665,0.03879760578274727,0.07610992342233658,0.05671996995806694,0.035362549126148224,0.045486755669116974,0.04689117521047592,0.02893981896340847,0.13787078857421875,0.03999572619795799
-0.41534423828125,-0.1312255859375,2.15301513671875,2.92144775390625,1.13983154296875,0.63323974609375,0.40374755859375,0.79620361328125,-0.0390625,0.010986328125,-0.01312255859375,0.04791259765625,-0.013427734375,-0.001220703125,-0.00518798828125,-0.00579833984375,0.0006103515625,0.0067138671875,-0.020751953125,0.00091552734375,-0.00335693359375,-0.003662109375,-0.0042724609375,-0.00640869140625,-0.018310546875,0.006103515625,-0.02166748046875,0.01556396484375,-0.00396728515625,-0.0213623046875,-0.00701904296875,-0.00152587890625,0.001220703125,-0.00701904296875,-0.001220703125,-0.01068115234375,-0.00213623046875,-0.00579833984375,-0.0048828125,-0.008544921875,0.3725079298019409,0.27272918820381165,0.014993896707892418,0.07839874178171158,0.06114501878619194,0.041618652641773224,0.047317810356616974,0.06123443692922592,0.04389343410730362,0.14153289794921875,0.04167419299483299
-0.411376953125,-0.1287841796875,2.161865234375,2.91748046875,1.10748291015625,0.62530517578125,0.38787841796875,0.76202392578125,-0.025634765625,0.009765625,-0.03021240234375,0.030517578125,-0.01434326171875,0.00823974609375,-0.0067138671875,-0.00457763671875,-0.01434326171875,0.003662109375,-0.0225830078125,0.00762939453125,-0.0054931640625,-0.0054931640625,-0.0018310546875,-0.0067138671875,-0.0140380859375,0.00518798828125,-0.01922607421875,0.01373291015625,-0.00213623046875,-0.00823974609375,-0.01495361328125,-0.0079345703125,0.00213623046875,0.01129150390625,-0.0006103515625,-0.008544921875,-0.003662109375,-0.00732421875,-0.0048828125,0.00457763671875,0.3697613477706909,0.27913787961006165,0.014383545145392418,0.09228423982858658,0.06190795823931694,0.038261719048023224,0.050216980278491974,0.05909820646047592,0.02344665490090847,0.13970184326171875,0.028551636263728142
-0.41351318359375,-0.10284423828125,2.16522216796875,2.91351318359375,1.05499267578125,0.60943603515625,0.37811279296875,0.74798583984375,-0.025634765625,0.00701904296875,-0.02410888671875,0.02777099609375,-0.01068115234375,-0.0213623046875,-0.00640869140625,-0.0042724609375,-0.013427734375,0.00335693359375,-0.018310546875,0.00274658203125,-0.0042724609375,-0.00732421875,-0.00396728515625,-0.0079345703125,-0.01556396484375,0.02288818359375,-0.01708984375,0.01861572265625,-0.00518798828125,-0.0030517578125,-0.00152587890625,-0.00823974609375,0.00152587890625,-0.0048828125,-0.00457763671875,-0.00640869140625,-0.00396728515625,0.00030517578125,0.0006103515625,-0.00335693359375,0.3946331739425659,0.31530120968818665,0.023081054911017418,0.13058380782604218,0.05656738206744194,0.048790283501148224,0.042129822075366974,0.05787750333547592,0.01963195763528347,0.12322235107421875,0.03740173205733299
-0.411376953125,-0.12298583984375,2.16766357421875,2.906494140625,1.024169921875,0.5926513671875,0.3643798828125,0.70831298828125,-0.020751953125,0.0079345703125,0.0079345703125,0.040283203125,-0.062255859375,-0.0726318359375,-0.0836181640625,-0.042724609375,-0.0115966796875,0.00213623046875,-0.0225830078125,0.00457763671875,-0.006103515625,-0.003662109375,-0.001220703125,0.00091552734375,-0.0146484375,0.00701904296875,-0.01556396484375,0.01861572265625,-0.00396728515625,-0.00762939453125,-0.00640869140625,-0.00457763671875,0.0030517578125,-0.00579833984375,-0.00244140625,-0.00885009765625,0.00091552734375,-0.00457763671875,-0.0067138671875,0.0006103515625,0.3902081251144409,0.32888153195381165,0.03269409015774727,0.13149933516979218,0.03993530198931694,0.035820312798023224,0.051285095512866974,0.06947418302297592,0.03412780910730362,0.11345672607421875,0.014055785723030567
-0.4083251953125,-0.11016845703125,2.1612548828125,2.88604736328125,1.002197265625,0.57220458984375,0.35247802734375,0.684814453125,-0.05859375,-0.01739501953125,-0.02685546875,0.02349853515625,-0.11383056640625,-0.107421875,-0.14404296875,-0.08209228515625,-0.00885009765625,0.00518798828125,-0.0177001953125,-0.01800537109375,-0.0103759765625,-0.00244140625,-0.00274658203125,-0.0054931640625,-0.0146484375,0.0048828125,-0.01983642578125,0.02166748046875,-0.0006103515625,-0.00152587890625,-0.00732421875,-0.0079345703125,-0.01129150390625,-0.0091552734375,-0.00518798828125,0.00213623046875,-0.0054931640625,-0.00335693359375,-0.00518798828125,0.0030517578125,0.3380230665206909,0.35390594601631165,0.03238891437649727,0.14370636641979218,0.02742309495806694,0.044670410454273224,0.047317810356616974,0.05909820646047592,0.01337585411965847,0.12993621826171875,0.028551636263728142
-0.40802001953125,-0.1043701171875,2.15301513671875,2.8668212890625,0.96221923828125,0.55816650390625,0.33477783203125,0.65765380859375,-0.04791259765625,-0.023193359375,-0.01983642578125,0.01983642578125,-0.12786865234375,-0.123291015625,-0.1556396484375,-0.09246826171875,-0.01007080078125,0.0030517578125,-0.018310546875,0.0,-0.0042724609375,-0.00091552734375,-0.00396728515625,-0.001220703125,-0.01953125,0.003662109375,-0.01739501953125,0.0103759765625,-0.003662109375,-0.00518798828125,-0.0091552734375,-0.00457763671875,-0.00244140625,-0.0067138671875,-0.00152587890625,-0.00885009765625,-0.00244140625,-0.0030517578125,-0.00701904296875,-0.00274658203125,0.3021649122238159,0.36260345578193665,0.03772949054837227,0.13592438399791718,0.01887817308306694,0.040703125298023224,0.044113464653491974,0.05253692716360092,0.02665100060403347,0.12001800537109375,0.020464478060603142
-0.39764404296875,-0.09521484375,2.13409423828125,2.83782958984375,0.9307861328125,0.53924560546875,0.3216552734375,0.62896728515625,-0.03021240234375,-0.00274658203125,-0.0091552734375,0.02288818359375,-0.01251220703125,-0.003662109375,0.001220703125,-0.0103759765625,-0.013427734375,0.003662109375,-0.0152587890625,0.00152587890625,-0.00518798828125,-0.00335693359375,-0.00213623046875,-0.00335693359375,-0.006103515625,0.00579833984375,-0.0152587890625,0.02349853515625,-0.00457763671875,-0.00518798828125,-0.00396728515625,-0.00946044921875,0.00274658203125,-0.008544921875,-0.00091552734375,-0.0103759765625,-0.00396728515625,-0.0042724609375,-0.00091552734375,0.00244140625,0.2862957715988159,0.37542083859443665,0.04047607257962227,0.15469269454479218,0.015063476748764515,0.023002929985523224,0.030227966606616974,0.04948516935110092,0.02939758263528347,0.12932586669921875,0.020922241732478142
-0.38909912109375,-0.087890625,2.099609375,2.8033447265625,0.8990478515625,0.51544189453125,0.30975341796875,0.60516357421875,-0.020751953125,0.00640869140625,-0.00823974609375,0.03265380859375,-0.00946044921875,-0.0079345703125,0.0054931640625,-0.006103515625,-0.01190185546875,0.00518798828125,-0.01983642578125,0.00518798828125,-0.00244140625,-0.00518798828125,-0.00244140625,-0.0048828125,-0.0164794921875,0.0054931640625,-0.0225830078125,0.018310546875,-0.003662109375,-0.0067138671875,-0.0067138671875,-0.0030517578125,-0.0006103515625,-0.001220703125,-0.00335693359375,-0.00946044921875,0.0,-0.00579833984375,-0.00152587890625,0.0103759765625,0.2676800489425659,0.35604217648506165,0.03650878742337227,0.14263825118541718,0.004840088076889515,0.045433349907398224,0.028396911919116974,0.05101104825735092,0.02359924279153347,0.11406707763671875,0.026415405794978142
-0.38055419921875,-0.08026123046875,2.0892333984375,2.76580810546875,0.8636474609375,0.5010986328125,0.29754638671875,0.5804443359375,-0.01373291015625,0.00213623046875,-0.00885009765625,0.02532958984375,-0.008544921875,-0.0079345703125,0.00640869140625,-0.00457763671875,-0.0091552734375,0.00274658203125,-0.01708984375,0.00701904296875,-0.00213623046875,-0.0018310546875,-0.013427734375,-0.0042724609375,-0.0189208984375,0.02471923828125,-0.01312255859375,0.01739501953125,-0.00335693359375,-0.00579833984375,-0.00732421875,-0.0006103515625,0.00091552734375,-0.00701904296875,-0.00274658203125,-0.01007080078125,0.00091552734375,-0.00152587890625,-0.02044677734375,-0.00335693359375,0.23289000988006592,0.35299041867256165,0.029489746317267418,0.14218048751354218,-0.02354126051068306,0.09166748076677322,0.027023620903491974,0.03651519864797592,0.04679260402917862,0.11864471435546875,0.017260132357478142
-0.36834716796875,-0.07659912109375,2.060546875,2.73223876953125,0.82672119140625,0.48431396484375,0.2850341796875,0.555419921875,-0.01708984375,0.0018310546875,-0.01220703125,0.0177001953125,-0.00732421875,-0.0103759765625,-0.00396728515625,-0.00823974609375,-0.00823974609375,0.0054931640625,-0.01373291015625,0.00335693359375,-0.00762939453125,-0.0030517578125,-0.00091552734375,-0.00640869140625,-0.00518798828125,0.00152587890625,-0.0189208984375,0.01373291015625,-0.00335693359375,-0.003662109375,-0.003662109375,-0.009765625,-0.0006103515625,-0.0067138671875,0.00030517578125,-0.00885009765625,-0.00457763671875,-0.00091552734375,0.00030517578125,-0.00091552734375,0.19306457042694092,0.32186248898506165,0.03605102375149727,0.13378815352916718,0.004534912295639515,0.08724243193864822,0.015732116997241974,0.02171417325735092,0.02405700646340847,0.11223602294921875,0.019091187044978142
-0.35552978515625,-0.068359375,2.02789306640625,2.674560546875,0.792236328125,0.46630859375,0.27069091796875,0.53070068359375,-0.01708984375,0.00091552734375,-0.00396728515625,0.01739501953125,-0.00732421875,-0.009765625,-0.00244140625,-0.006103515625,-0.003662109375,0.00152587890625,-0.0213623046875,-0.006103515625,-0.009765625,-0.00762939453125,-0.010986328125,-0.0079345703125,-0.01373291015625,0.02197265625,-0.0189208984375,0.020751953125,-0.0128173828125,-0.00152587890625,-0.0006103515625,-0.01190185546875,0.00152587890625,-0.00579833984375,0.0054931640625,-0.009765625,-0.00213623046875,-0.006103515625,-0.001220703125,-0.00335693359375,0.22205626964569092,0.32567718625068665,0.028574218973517418,0.13424591720104218,0.0037719726096838713,0.059318847954273224,0.014969177544116974,0.02720733731985092,0.01825866661965847,0.12520599365234375,0.03343444690108299
-0.3643798828125,-0.07080078125,1.986083984375,2.61871337890625,0.75958251953125,0.447998046875,0.26092529296875,0.50628662109375,-0.01678466796875,-0.00030517578125,0.00152587890625,0.01495361328125,-0.00823974609375,-0.0115966796875,-0.00396728515625,-0.00732421875,-0.01068115234375,0.00244140625,-0.0177001953125,0.00396728515625,-0.00396728515625,0.00274658203125,-0.00457763671875,-0.00091552734375,-0.0140380859375,0.00762939453125,-0.0140380859375,0.0201416015625,0.0030517578125,-0.00244140625,-0.010986328125,-0.018310546875,0.0006103515625,-0.0091552734375,0.0048828125,-0.01068115234375,-0.00640869140625,0.00732421875,-0.0042724609375,0.0018310546875,0.22159850597381592,0.30553558468818665,0.014841308817267418,0.12158111482858658,0.02681274339556694,0.048942871391773224,0.006271667312830687,0.02018829435110092,0.02466735802590847,0.11009979248046875,0.04365783557295799
-0.35736083984375,-0.0665283203125,1.9329833984375,2.5537109375,0.7244873046875,0.43853759765625,0.2484130859375,0.48553466796875,-0.00732421875,0.00030517578125,-0.00244140625,0.010986328125,-0.0079345703125,-0.00701904296875,-0.0067138671875,-0.00579833984375,-0.0146484375,-0.00152587890625,-0.0201416015625,0.0042724609375,-0.00152587890625,-0.003662109375,-0.02105712890625,0.00030517578125,-0.0140380859375,0.01708984375,-0.018310546875,0.01861572265625,0.00091552734375,-0.00579833984375,-0.01007080078125,-0.00274658203125,-0.0042724609375,-0.006103515625,-0.00244140625,-0.0128173828125,-0.0067138671875,-0.00518798828125,-0.0018310546875,0.00244140625,0.20069396495819092,0.27410247921943665,0.007822265848517418,0.11852935701608658,0.02803344652056694,0.046654053032398224,0.011307068169116974,0.001877746544778347,0.04816589504480362,0.11742401123046875,0.022448120638728142
-0.3497314453125,-0.06439208984375,1.88568115234375,2.48199462890625,0.69000244140625,0.40863037109375,0.22552490234375,0.46112060546875,-0.01068115234375,0.0103759765625,0.009765625,0.0225830078125,-0.06134033203125,-0.0604248046875,-0.08026123046875,-0.050048828125,-0.00885009765625,0.0018310546875,-0.020751953125,0.00152587890625,-0.00213623046875,-0.0054931640625,-0.00030517578125,-0.00518798828125,-0.01251220703125,0.00732421875,-0.01678466796875,0.02532958984375,-0.0030517578125,-0.01068115234375,-0.00640869140625,-0.00335693359375,0.00091552734375,-0.0079345703125,-0.00396728515625,-0.01251220703125,0.00030517578125,-0.00579833984375,-0.00457763671875,-0.00152587890625,0.22388732433319092,0.24770477414131165,0.006448974832892418,0.10403350740671158,0.05656738206744194,0.07350952178239822,-0.013106994330883026,0.0009622192592360079,0.02680358849465847,0.09026336669921875,0.03267150744795799
-0.3424072265625,-0.06103515625,1.82586669921875,2.40264892578125,0.6536865234375,0.38909912109375,0.22064208984375,0.4290771484375,-0.03265380859375,-0.02349853515625,-0.0213623046875,0.00701904296875,-0.113525390625,-0.11444091796875,-0.13824462890625,-0.08270263671875,-0.01251220703125,-0.01007080078125,-0.02044677734375,0.00335693359375,-0.00518798828125,-0.00823974609375,-0.00457763671875,-0.02197265625,-0.0164794921875,0.0067138671875,-0.0189208984375,0.0189208984375,0.00152587890625,-0.0067138671875,-0.0079345703125,-0.0054931640625,-0.00244140625,-0.00579833984375,-0.00244140625,-0.01190185546875,-0.00274658203125,-0.0042724609375,-0.0030517578125,0.00335693359375,0.22251403331756592,0.21611908078193665,0.013162842020392418,0.09564117342233658,0.10875244438648224,0.07976562529802322,0.013748474419116974,0.010117492638528347,0.02649841271340847,0.03807830810546875,0.03404479846358299
-0.3326416015625,-0.064697265625,1.76239013671875,2.31964111328125,0.616455078125,0.36865234375,0.208740234375,0.41534423828125,-0.0341796875,-0.02716064453125,-0.02166748046875,-0.0018310546875,-0.1239013671875,-0.12237548828125,-0.15228271484375,-0.09033203125,-0.0128173828125,0.00091552734375,-0.01617431640625,0.00274658203125,-0.00457763671875,-0.00732421875,-0.00640869140625,-0.00732421875,-0.01678466796875,0.006103515625,-0.01861572265625,0.01922607421875,0.00030517578125,-0.0018310546875,-0.00213623046875,-0.0018310546875,-0.00152587890625,-0.00274658203125,-0.0018310546875,-0.013427734375,-0.00030517578125,-0.00732421875,-0.00640869140625,-0.00335693359375,0.22922790050506592,0.21047332882881165,0.010416259989142418,0.07809356600046158,0.10722656548023224,0.08113891631364822,0.027786560356616974,0.012864074669778347,0.01886901818215847,-0.06110382080078125,0.03709655627608299
-0.318603515625,-0.06317138671875,1.673583984375,2.20794677734375,0.5810546875,0.35125732421875,0.2020263671875,0.3936767578125,-0.0213623046875,-0.00946044921875,-0.00823974609375,0.00152587890625,-0.00396728515625,-0.01251220703125,-0.0103759765625,-0.0048828125,-0.006103515625,0.0067138671875,-0.015869140625,0.01312255859375,-0.009765625,-0.0067138671875,0.00885009765625,-0.00885009765625,-0.0140380859375,0.0054931640625,-0.0164794921875,0.018310546875,-0.00518798828125,-0.00457763671875,-0.003662109375,-0.00518798828125,0.00396728515625,-0.0048828125,-0.00335693359375,-0.0067138671875,-0.00579833984375,-0.0048828125,0.0048828125,0.0,0.22510802745819092,0.20452240109443665,0.021555176004767418,0.06481841951608658,0.09074707329273224,0.06603271514177322,0.017410583794116974,0.012864074669778347,0.02039489708840847,-0.12961578369140625,0.020159302279353142
-0.31646728515625,-0.0677490234375,1.60797119140625,2.12158203125,0.54840087890625,0.31402587890625,0.18829345703125,0.3704833984375,-0.01129150390625,-0.00335693359375,-0.00885009765625,-0.00091552734375,-0.008544921875,-0.006103515625,-0.00213623046875,-0.00640869140625,-0.0103759765625,0.0054931640625,-0.01373291015625,0.0048828125,0.0006103515625,-0.00213623046875,-0.0030517578125,-0.00640869140625,-0.01434326171875,0.00274658203125,-0.0189208984375,0.0177001953125,-0.00274658203125,-0.00396728515625,-0.0048828125,-0.00335693359375,0.00213623046875,-0.013427734375,-0.00518798828125,-0.00732421875,-0.00518798828125,-0.0006103515625,-0.00396728515625,-0.00152587890625,0.21473205089569092,0.16820648312568665,0.008890381082892418,0.05276397615671158,0.10859985649585724,0.08342773467302322,0.005050964187830687,0.014847717247903347,0.03641662746667862,-0.06751251220703125,0.029009399935603142
-0.30426025390625,-0.07568359375,1.5008544921875,1.99371337890625,0.5145263671875,0.30670166015625,0.18157958984375,0.352783203125,-0.0152587890625,-0.00457763671875,-0.00640869140625,-0.01129150390625,-0.00518798828125,-0.01251220703125,-0.010986328125,-0.01007080078125,-0.0103759765625,0.00030517578125,-0.01495361328125,0.001220703125,-0.0048828125,0.00335693359375,-0.0054931640625,-0.00579833984375,-0.02044677734375,0.00701904296875,-0.0152587890625,0.0048828125,0.0,-0.00152587890625,-0.00732421875,-0.00335693359375,-0.00091552734375,-0.01007080078125,-0.0030517578125,-0.01495361328125,-0.00396728515625,-0.0042724609375,-0.006103515625,-0.00152587890625,0.20847594738006592,0.17904022336006165,0.03666137531399727,0.03246978670358658,0.10249634087085724,0.08388549834489822,0.0010836792644113302,0.01912017911672592,0.02802429161965847,0.07729339599609375,0.03679138049483299
-0.29754638671875,-0.087890625,1.417236328125,1.87347412109375,0.47698974609375,0.29571533203125,0.17364501953125,0.330810546875,-0.01251220703125,-0.0048828125,0.00457763671875,0.00518798828125,-0.00579833984375,-0.0079345703125,-0.00244140625,-0.0042724609375,-0.02288818359375,0.00274658203125,-0.0189208984375,-0.0103759765625,-0.00274658203125,-0.00335693359375,-0.00244140625,-0.00152587890625,-0.0140380859375,0.00579833984375,-0.01251220703125,0.01983642578125,-0.001220703125,-0.0042724609375,-0.00885009765625,0.00152587890625,0.00244140625,-0.00640869140625,0.00091552734375,-0.01007080078125,-0.00274658203125,-0.00701904296875,-0.00030517578125,0.00244140625,0.20069396495819092,0.14486053586006165,0.03971313312649727,0.002562561072409153,0.10432739555835724,0.08052856475114822,0.004898376297205687,0.04475494474172592,0.03733215481042862,0.16625213623046875,0.06257873773574829
-0.27740478515625,-0.10345458984375,1.279296875,1.702880859375,0.43914794921875,0.272216796875,0.17120361328125,0.311279296875,-0.006103515625,0.0018310546875,0.00213623046875,0.00518798828125,0.00213623046875,-0.00946044921875,-0.0030517578125,-0.00579833984375,-0.02227783203125,0.0018310546875,-0.0177001953125,0.00244140625,-0.00640869140625,-0.01007080078125,-0.00640869140625,-0.0067138671875,-0.01251220703125,0.006103515625,-0.0189208984375,0.01800537109375,-0.0030517578125,-0.00579833984375,-0.0048828125,0.0006103515625,0.00213623046875,-0.0048828125,0.0,-0.006103515625,-0.0054931640625,-0.01068115234375,0.001220703125,-0.0048828125,0.19794738292694092,0.12410858273506165,0.03528808429837227,0.004393615759909153,0.08815307915210724,0.07137329131364822,-0.0001370239187963307,0.04994293302297592,0.02451477013528347,0.11208343505859375,0.05586486682295799
-0.27496337890625,-0.0927734375,1.19903564453125,1.5972900390625,0.404052734375,0.252685546875,0.15289306640625,0.29022216796875,-0.00457763671875,-0.00732421875,-0.00762939453125,-0.00091552734375,-0.00732421875,-0.009765625,0.01129150390625,-0.00518798828125,-0.02227783203125,0.00518798828125,-0.015869140625,0.00213623046875,-0.0030517578125,-0.0048828125,0.0,-0.00701904296875,-0.018310546875,0.00701904296875,-0.01617431640625,0.0164794921875,-0.00335693359375,-0.0091552734375,-0.0067138671875,-0.00579833984375,-0.00091552734375,-0.006103515625,-0.0006103515625,-0.01068115234375,-0.001220703125,-0.0067138671875,-0.00091552734375,0.0189208984375,0.18986022472381592,0.08504608273506165,0.024301758036017418,-0.02108856290578842,0.08754272758960724,0.038566894829273224,0.008560486137866974,0.06626983731985092,0.01810607872903347,0.16121673583984375,0.020159302279353142
-0.2606201171875,-0.1092529296875,1.10321044921875,1.4599609375,0.37109375,0.2288818359375,0.14251708984375,0.26702880859375,-0.010986328125,-0.0091552734375,-0.0030517578125,-0.013427734375,-0.00701904296875,-0.00701904296875,-0.00213623046875,-0.00946044921875,-0.0146484375,-0.00030517578125,-0.01556396484375,-0.00030517578125,-0.00396728515625,-0.00335693359375,-0.003662109375,-0.00518798828125,-0.0152587890625,0.00732421875,-0.01739501953125,0.02227783203125,0.00244140625,0.0006103515625,-0.00885009765625,-0.02410888671875,-0.0030517578125,-0.00823974609375,0.00762939453125,-0.01068115234375,-0.00579833984375,-0.00244140625,0.0006103515625,-0.0042724609375,0.07465637475252151,0.08504608273506165,0.006448974832892418,-0.02230926603078842,0.08403320610523224,-0.029945068061351776,0.011154480278491974,0.06764312833547592,0.01520690880715847,0.36019134521484375,0.030077515169978142
-0.2459716796875,-0.1165771484375,1.011962890625,1.34674072265625,0.32989501953125,0.211181640625,0.12847900390625,0.24444580078125,-0.003662109375,-0.00579833984375,0.00885009765625,-0.0054931640625,-0.059814453125,-0.06256103515625,-0.076904296875,-0.0457763671875,-0.01251220703125,-0.00396728515625,-0.01708984375,0.00335693359375,-0.008544921875,-0.00518798828125,-0.0042724609375,-0.00640869140625,-0.01617431640625,0.0091552734375,-0.015869140625,0.0213623046875,-0.003662109375,0.00152587890625,0.00152587890625,-0.00244140625,0.00274658203125,-0.00762939453125,-0.003662109375,-0.01251220703125,-0.00732421875,-0.008544921875,-0.003662109375,0.0006103515625,0.07725036889314651,0.07970550656318665,0.03345702961087227,-0.005066833458840847,0.08174438774585724,0.012626953423023224,0.009781189262866974,0.06504913419485092,0.04465637356042862,0.27886199951171875,0.024584351107478142
-0.225830078125,-0.12359619140625,0.9149169921875,1.22283935546875,0.29998779296875,0.19195556640625,0.11932373046875,0.2130126953125,-0.0244140625,-0.03509521484375,-0.020751953125,-0.02105712890625,-0.10650634765625,-0.0958251953125,-0.1373291015625,-0.08636474609375,-0.0115966796875,0.0054931640625,-0.0146484375,0.00457763671875,-0.00091552734375,-0.00396728515625,-0.00640869140625,-0.02655029296875,-0.0189208984375,0.00335693359375,-0.01708984375,0.01983642578125,0.00274658203125,-0.00457763671875,-0.0030517578125,0.0006103515625,0.0,-0.0042724609375,-0.00213623046875,-0.0115966796875,-0.00518798828125,-0.006103515625,-0.0042724609375,-0.00213623046875,0.06595886498689651,0.059258729219436646,0.03574584797024727,0.010954895056784153,0.08128662407398224,0.023460693657398224,0.0013888550456613302,0.04811187833547592,0.03061828576028347,0.17174530029296875,0.025042114779353142
-0.22064208984375,-0.118408203125,0.8343505859375,1.11846923828125,0.26275634765625,0.1690673828125,0.1080322265625,0.2056884765625,-0.02777099609375,-0.03936767578125,-0.02899169921875,-0.02227783203125,-0.12237548828125,-0.128173828125,-0.14923095703125,-0.09307861328125,-0.00823974609375,-0.00091552734375,-0.0164794921875,0.0030517578125,-0.00701904296875,-0.0079345703125,-0.0048828125,-0.00885009765625,-0.01373291015625,0.003662109375,-0.02044677734375,0.0213623046875,-0.00213623046875,-0.0030517578125,-0.001220703125,-0.0054931640625,0.0006103515625,-0.00732421875,-0.0054931640625,-0.00640869140625,-0.0054931640625,-0.00732421875,0.01251220703125,-0.0054931640625,0.06733215600252151,0.042168885469436646,0.029947509989142418,0.02758697420358658,0.07518310844898224,0.012474365532398224,0.017868347465991974,0.03910919278860092,0.03489074856042862,0.10231781005859375,0.03602844104170799
