Time,LGLTMED,LRF,LADDLONG,LBF,LTA,LGM
0.0,0.0005858508028062031,0.001300888485578387,-0.001018210131818159,0.019855295908414144,-0.025508131780470556,-0.0009329510162490148
0.001,0.0006003078973346427,0.0013477204483193395,-0.0009120439930501386,0.02029769397674774,-0.02398540014783759,-0.0007919174867647389
0.002,0.0006145856976955988,0.0013950556237758813,-0.0008064896183657223,0.020736136918624734,-0.022466353439233856,-0.0006501954424632088
0.003,0.0006286802510216655,0.0014428864351774106,-0.0007016027142123321,0.021170360038503817,-0.020951683843962357,-0.0005078335621674132
0.004,0.0006425884144917693,0.0014912056549232328,-0.0005974377850913108,0.02160011090526025,-0.019442073020837447,-0.00036488043635294823
0.005,0.0006563078939433307,0.0015400064436650479,-0.0004940480471306942,0.022025150257968217,-0.0179381912897088,-0.00022138451547583756
0.006,0.0006698372816263329,0.0015892823887767107,-0.0003914853441142281,0.022445252899452907,-0.016440696859118364,-7.739406079376928e-05
0.007,0.000683176092959212,0.001639027542040685,-0.00028980006617222996,0.02286020857438786,-0.014950235091960262,6.704290211754665e-05
0.008,0.0006963248021516447,0.0016892364563861814,-0.00018904107133219908,0.0232698228288868,-0.013467437810851966,0.00021187862696353622
0.009,0.0007092848765625353,0.0017399042215185173,-8.925561011829944e-05,0.023673917848758518,-0.011992922644772665,0.0003570656872688625
0.01,0.0007220588096632825,0.001791026498284123,9.510746620459819e-06,0.024072333273815555,-0.010527292418394077,0.0005025570136932196
0.011,0.0007346501524786781,0.0018425995516220535,0.0001072141764823222,0.024464926985823435,-0.009071134585414666,0.0006483059279821466
0.012,0.0007470635433827322,0.0018946202819607638,0.00020381267072301716,0.024851575867857738,-0.00762502070708833,0.0007942661734309117
0.013,0.0007593047361355266,0.001947086254926687,0.0002992660957530349,0.02523217653302504,-0.006189505976991859,0.0009403919417606452
0.014,0.0007713806260591705,0.0019999957292372223,0.0003935362507853171,0.025606646020693246,-0.004765128792899653,0.0010866378963264368
0.015,0.0007832992742633859,0.0020533476826548984,0.00048658692151353226,0.02597492245853929,-0.0033524103764402315,0.001232959191597506
0.016,0.0007950699298410839,0.0021071418358830853,0.0005783839297178041,0.02633696568884977,-0.0019518544409942787,0.0013793114888706658
0.017,0.0008067030499601044,0.0021613786742883056,0.0006688951787099318,0.026692757857613814,-0.0005639469080411815,0.0015256509681998668
0.018,0.0008182103177797905,0.0022160594673410338,0.0007580906945443885,0.02704230396502765,0.0008108443281279452,0.0016719343365457487
0.019,0.0008296046581218323,0.002271186285677759,0.0008459426629353513,0.02738563237607671,0.002172069587704379,0.0018181188321690377
0.02,0.0008409002508251213,0.0023267620157039373,0.0009324254618323277,0.027722795289876742,0.003519297545296889,0.0019641622253094987
0.021,0.0008521125417150296,0.002382790371679094,0.0010175156896156071,0.028053869166451695,0.004852115323358028,0.0021100228152089225
0.022,0.0008632582511189488,0.0024392759052459367,0.0011011921888780373,0.028378955109614867,0.006170128540125737,0.0022556594235556
0.023,0.0008743553798623758,0.002496224012379629,0.0011834360657644084,0.028698179204619634,0.007472961313244527,0.002401031384449988
0.024,0.0008854232126838371,0.002553640937741203,0.0012642307048481955,0.02901169280929373,0.00876025622035431,0.0025460985310129607
0.025,0.0008964823190131159,0.0026115337764236937,0.0013435617795407942,0.029319672797501497,0.010031674218059854,0.002690821178775404
0.026,0.000907554551065618,0.0026699104730828014,0.001421417258050242,0.02962232175399159,0.011286894520821183,0.0028351601060020728
0.027,0.0009186630392154924,0.002728779818446483,0.0014977874049296649,0.029919868119935137,0.012525614441418776,0.0029790765311169596
0.028,0.0009298321846203262,0.0027881514432017323,0.0015726647782737689,0.030212566288687768,0.01374754919473063,0.003122532087413932
0.029,0.0009410876490798558,0.0028480358092639038,0.0016460442226317812,0.030500696651503328,0.014952431666615092,0.003265488795255214
0.03,0.0009524563421191509,0.0029084441984431487,0.0017179228577098632,0.03078456559310773,0.016140012149748924,0.0034079090319794766
0.031,0.0009639664052926367,0.0029693886985296012,0.0017883000629403483,0.0310645054372231,0.017310058048352492,0.003549755499757394
0.032,0.000975647193709693,0.0030308821868204614,0.0018571774580028871,0.03134087434229195,0.018462353553848662,0.0036909911916440863
0.033,0.0009875292547864188,0.0030929383111088496,0.0019245588793934249,0.03161405614775584,0.019596699293624818,0.003831579356086451
0.034,0.0009996443042318455,0.0031555714681501187,0.0019904503531470085,0.03188446017129242,0.020712911955166956,0.003971483460150764
0.035,0.0010120251992803086,0.0032187967796191348,0.00205486006382603,0.03215252095745087,0.02181082388789453,0.004110667151741821
0.036,0.0010247059091852662,0.0032826300655719436,0.0021177983198864578,0.03241869797818685,0.022890282685041764,0.0042490942210888175
0.037,0.0010377214829942626,0.0033470878154261336,0.002179277515533694,0.03268347528587754,0.023951150747913107,0.004386728561775553
0.038,0.0010511080146296868,0.0034121871564768667,0.002239312089180084,0.032947361119454455,0.02499330483480252,0.00452353413159379
0.039,0.0010649026053046106,0.0034779458199727517,0.0022979184786185783,0.03321088746429933,0.026016635596826876,0.004659474913499081
0.04,0.0010791433233073482,0.003544382104788692,0.0023551150730294545,0.03347460956651634,0.027021047102892364,0.004794514876948555
0.041,0.0010938691611936183,0.0036115148387496332,0.0024109221619372794,0.03373910540214957,0.028006456355988682,0.004928617939900632
0.042,0.0011091199904318704,0.003679363337676678,0.0024653618812338833,0.03400497510188789,0.028972792802978098,0.005061747931756334
0.043,0.0011249365135543217,0.0037479473622434784,0.0025184581563819164,0.034272840331804326,0.029919997840008667,0.00519386855751984
0.044,0.0011413602138716525,0.003817287072743997,0.002570236642913131,0.03454334363070157,0.030848024315633354,0.005324943363452104
0.045,0.001158433302812411,0.003887402981880169,0.0026207246643355883,0.03481714770464765,0.03175683603366184,0.005454935704486012
0.046,0.0011761986649498222,0.003958315905679564,0.002669951147565242,0.03509493467926998,0.03264640725770951,0.005583808713664964
0.047,0.0011946998007799432,0.004030046912651152,0.0027179465560014165,0.03537740531035321,0.03351672221933577,0.005711525273859172
0.048,0.0012139807673164098,0.004102617271284132,0.0027647428203724667,0.03566527815329625,0.03436777463158085,0.005838047992005582
0.049,0.00123408611656829,0.004176048395992121,0.002810373267484739,0.035959288692043116,0.03519956720961691,0.005963339176107211
0.05,0.001255060831968296,0.004250361791604054,0.002854872547011796,0.036260188428196574,0.03601211120013151,0.006087360815215359
0.051,0.0012769502628185853,0.004325578996502967,0.002898276556461105,0.0365687439311275,0.0368054259209644,0.006210074562604502
0.052,0.0012998000568213786,0.004401721524512179,0.0029406223644536478,0.03688573584998311,0.03757953831242654,0.006331441722336476
0.053,0.0013236560907627338,0.004478810805623988,0.0029819481324502768,0.037211957888561235,0.03833448250163915,0.006451423239398432
0.054,0.0013485643994198809,0.004556868125659858,0.0030222930350582264,0.037548215744053474,0.03907029938113259,0.006569979693586986
0.055,0.0013745711027644844,0.004635914564944157,0.0030616971790519646,0.03789532601067718,0.03978703620283458,0.006687071297297456
0.056,0.001401722331535665,0.0047159709360654134,0.0031002015212432455,0.0382541150492213,0.04048474618845686,0.006802657897361572
0.057,0.001430064151258554,0.004797057720789949,0.003137847785333827,0.03862541782351593,0.04116348815716351,0.006916698981059524
0.058,0.0014596424847882015,0.004879195006184667,0.0031746783778793496,0.039010076704788677,0.04182332617127232,0.007029153686412485
0.059,0.0014905030334657113,0.004962402420001694,0.0032107363034849738,0.03940894024478834,0.042464329200600094,0.007139980816840051
0.06,0.001522691196982861,0.005046699065379196,0.00324606507934465,0.03982286191844601,0.04308657080591618,0.007249138860244905
0.061,0.0015562519920615248,0.0051321034549182,0.0032807086492281133,0.04025269883671896,0.04369012884182354,0.007356586012565727
0.062,0.0015912299700632136,0.005218633444200505,0.003314711297013606,0.04069931043015032,0.044275085179249614,0.007462280205819185
0.063,0.0016276691336507424,0.0053063061648141755,0.0033481175598600943,0.04116355710361215,0.0448415254476015,0.00756617914063182
0.064,0.001665612852628646,0.005395137956950078,0.0033809721411103273,0.04164629886273046,0.0453895387965167,0.007668240323242629
0.065,0.0017051037790932883,0.00548514430162669,0.0034133198230151597,0.04214839391265895,0.04591921767701089,0.0077684211069379205
0.066,0.001746183762028915,0.005576339752592287,0.0034452053793698266,0.04267069723017889,0.04643065764168755,0.007866678737863128
0.067,0.0017888937614909965,0.005668737867943932,0.003476673488154928,0.04321405911050727,0.0469239571635473,0.00796297040514233
0.068,0.0018332737625209954,0.0057623511414931685,0.0035077686442797885,0.043779323690614665,0.04739921747283565,0.008057253295223051
0.069,0.001879362688936436,0.005857190933903037,0.0035385350725339053,0.04436732745122875,0.04785654241129405,0.008149484650347932
0.07,0.00192719831713753,0.005953267403623709,0.00356901664086217,0.04497889770000088,0.04829603830310337,0.00823962183103399
0.071,0.0019768171900676947,0.006050589437663166,0.003599256774088916,0.04561485103853548,0.04871781384171065,0.008327622382416123
0.072,0.002028254531461326,0.00614916458223964,0.0036292983682219434,0.04627599181611742,0.04912197999162026,0.008413444104286929
0.073,0.0020815441605094263,0.0062489989733695425,0.0036591837054694,0.046963110573020536,0.049508649904138675,0.00849704512464359
0.074,0.002136718407072907,0.00635009726744778,0.003688954370100965,0.047676982476251926,0.04987793884599875,0.008578383976535998
0.075,0.0021938080275751876,0.0064524625718788454,0.003718651165283328,0.048418365750502755,0.05022996413974123,0.0086574196779974
0.076,0.002252842121710837,0.006556096375821741,0.0037483140310214337,0.04918800010697376,0.050564845114677716,0.008734111814825564
0.077,0.0023138480501154906,0.006660998481124161,0.0037779819633420044,0.04998660517266409,0.0508827030671907,0.008808420625964883
0.078,0.0023768513531523365,0.006767166933541267,0.003807692934862944,0.05081487892269031,0.05118366122904457,0.008880307091217156
0.079,0.002441875670979069,0.006874597954356511,0.0038374838168990463,0.05167349611824492,0.05146784474230026,0.00894973302098281
0.08,0.0025089426650641102,0.006983285872540012,0.0038673903032597702,0.052563106752890325,0.051735380639384584,0.009016661147710622
0.081,0.00257807194132214,0.007093223057590777,0.0038974468358986118,0.053484334509983474,0.051986397826906186,0.009081055218717817
0.082,0.0026492809750386184,0.007204399853215167,0.003927686532575416,0.054437775234117074,0.052221027071948464,0.009142880090035527
0.083,0.002722585037753054,0.007316804512003356,0.00395814111669149,0.05542399541954095,0.05243940098978031,0.009202101820932002
0.084,0.002797997126272502,0.007430423131285289,0.003988840849452037,0.056443530718599984,0.052641654032147885,0.009258687768762014
0.085,0.0028755278939899247,0.007545239590375253,0.004019814464503398,0.05749688447329826,0.05282792247549143,0.009312606683786319
0.086,0.0029551855846856423,0.0076612354894386005,0.004051089105187237,0.05858452627317155,0.05299834440854603,0.009363828803604653
0.087,0.0030369759689930884,0.007778390090227194,0.004082690264550498,0.05970689054271503,0.05315305971885226,0.009412325946848142
0.088,0.0031209022837123536,0.007896680258934375,0.00411464172824585,0.060864375161665984,0.05329221007775091,0.00945807160577517
0.089,0.0032069651741563118,0.008016080411423923,0.004146965520450254,0.062057340121478816,0.05341593892348715,0.009501041037405024
0.09,0.0032951626397133087,0.008136562461093861,0.004179681852919705,0.06328610622134258,0.0535243914421203,0.009541211352810625
0.091,0.0033854899828061774,0.00825809576964264,0.0042128090772884305,0.06455095380706558,0.05361771454605257,0.009578561604181983
0.092,0.003477939761419585,0.008380647101009057,0.004246363640711934,0.06585212155607428,0.05369605685016863,0.009613072869268545
0.093,0.003572501745357641,0.008504180578757565,0.004280360044946086,0.06718980531164598,0.05375956864579427,0.009644728332812285
0.094,0.0036691628763827182,0.008628657647177657,0.004314810808948975,0.06856415696933921,0.05380840187287022,0.009673513364597194
0.095,0.0037679072323757545,0.00875403703636215,0.004349726435087289,0.06997528341843673,0.05384271009085361,0.00969941559376556
0.096,0.00386871599564868,0.008880274731526997,0.004385115379023057,0.07142324554110055,0.05386264844890623,0.009722424979079053
0.097,0.00397156742553145,0.009007323946835124,0.004420984023349424,0.07290805727186625,0.053868373655931744,0.009742533874822825
0.098,0.004076436835349267,0.009135135103986246,0.004457336655036618,0.07442968472006155,0.0538600439509945,0.00975973709206379
0.099,0.0041832965738994345,0.009263655815832087,0.004494175446742802,0.07598804535769851,0.0538378190745907,0.009774031954990818
0.1,0.004292116011531247,0.00939283087527166,0.004531500442039974,0.07758300727534116,0.053801860241167204,0.009785418352092524
0.101,0.004402861530925499,0.009522602249673717,0.004569309544602272,0.0792143885083875,0.05375233011323444,0.009793898781963158
0.102,0.00451549652266148,0.00965290908106089,0.004607598511401305,0.0808819564361419,0.05368939277742786,0.00979947839355715
0.103,0.0046299813856480465,0.009783687692270789,0.0046463609499482195,0.08258542725600629,0.05361321372292126,0.009802165020731994
0.104,0.004746273532481876,0.009914871599284508,0.004685588319614172,0.08432446553508822,0.05352395982262161,0.009801969210932786
0.105,0.004864327399782442,0.010046391529886218,0.004725269937050708,0.08609868384148332,0.053421799317531056,0.009798904247890662
0.106,0.004984094463542236,0.010178175448791302,0.004765392985721044,0.08790764245739648,0.053306901804543956,0.009792986168235977
0.107,0.005105523259523485,0.010310148589354093,0.00480594252954368,0.08975084917609594,0.053179438227789234,0.009784233771959227
0.108,0.005228559408727255,0.010442233491938515,0.004846901530641179,0.09162775918445235,0.05303958087346589,0.009772668626679094
0.109,0.005353145647954098,0.010574350049007402,0.0048882508711789825,0.09353777503253591,0.05288750336797351,0.00975831506569502
0.11,0.005479221865465493,0.010706415556962497,0.004929969379271595,0.09548024669146186,0.05272338067900715,0.009741200179820142
0.111,0.0056067251417426835,0.010838344774749,0.004972033858926589,0.09745447170040285,0.05254738911916547,0.009721353803023032
0.112,0.005735589795324879,0.0109700499892245,0.005014419123991183,0.0994596954034197,0.05235970635152982,0.009698808491955842
0.113,0.005865747433693142,0.011101441087280397,0.0050570980360623765,0.1014951112764976,0.052160511396640914,0.00967359949949747
0.114,0.005997127009150976,0.01123242563469393,0.005100041546319178,0.10355986134492029,0.051949984640335484,0.00964576474247726
0.115,0.006129654879639816,0.01136290896168134,0.00514321874123364,0.10565303669088746,0.05172830784197793,0.009615344763766222
0.116,0.006263254874417732,0.011492794255117796,0.005186596892117406,0.10777367805107586,0.05149566414268824,0.009582382688940775
0.117,0.006397848364520736,0.011621982657387385,0.005230141508464129,0.10992077650364854,0.05125223807320423,0.009546924177748209
0.118,0.006533354337916136,0.011750373371825234,0.005273816395054378,0.11209327424401559,0.05099821556103288,0.009509017370631222
0.119,0.006669689479246263,0.011877863774710675,0.005317583712793299,0.11429006544844114,0.05073378393656257,0.00946871283059203
0.12,0.006806768254049733,0.012004349533763461,0.0053614040432480746,0.11650999722437876,0.05045913193783491,0.00942606348068738
0.121,0.006944502997337777,0.012129724733087887,0.005405236456842709,0.11875187064620575,0.05017444971371464,0.009381124537442874
0.122,0.007082804006397089,0.012253882004506772,0.005449038584655972,0.12101444187481429,0.04987992882526833,0.009333953440462225
0.123,0.007221579637689546,0.012376712665225218,0.005492766693757169,0.12329642335929963,0.049575762245279736,0.00928460977849015
0.124,0.0073607364077210215,0.012498106861753499,0.005536375766004117,0.12559648511875882,0.04926214435596573,0.009233155212170358
0.125,0.007500179097751826,0.012617953719993394,0.005579819580217046,0.1279132561019718,0.04893927094505794,0.009179653393726388
0.126,0.007639810862216329,0.012736141501354924,0.005623050797630668,0.13024532562247837,0.04860733920044532,0.009124169883788995
0.127,0.00777953334070966,0.012852557764726777,0.005666021050513321,0.13259124486627247,0.04826654770353664,0.009066772065603646
0.128,0.007919246773387059,0.012967089534079775,0.005708681033826155,0.13494952846899602,0.04791709642142891,0.00900752905687077
0.129,0.00805885011960838,0.013079623471441482,0.005750980599776704,0.1373186561591193,0.04755918669789546,0.008946511619488184
0.13,0.008198241179648309,0.013190046054942325,0.005792868855101316,0.13969707446316554,0.04719302124316317,0.008883792067473828
0.131,0.00833731671928474,0.01329824376159974,0.005834294260891712,0.14208319846861384,0.046818804122442596,0.008819444173351343
0.132,0.008475972597076182,0.013404103254479386,0.0058752047347636945,0.14447541363975552,0.04643674074319246,0.008753543073284919
0.133,0.008614103894144062,0.013507511573854035,0.005915547755150909,0.14687207768154054,0.046047037841116835,0.00868616517124974
0.134,0.008751605046284505,0.013608356331968646,0.005955270467494636,0.14927152244637493,0.04564990346487548,0.008617388042514232
0.135,0.00888836997824248,0.013706525911007354,0.005994319792093666,0.15167205587892044,0.04524554695941954,0.008547290336690449
0.136,0.009024292239986173,0.013801909663838633,0.006032642533377368,0.15407196399418358,0.044834178947750214,0.00847595168058408
0.137,0.009159265144818378,0.013894398117089899,0.0060701854903680765,0.15646951288451352,0.04441601131075971,0.008403452581051159
0.138,0.009293181909154541,0.013983883176079135,0.006106895568102173,0.15886295075148413,0.04399125716467459,0.008329874328046603
0.139,0.00942593579378531,0.014070258331114659,0.006142719889780097,0.16125050995893386,0.04356013083550259,0.008255298898030082
0.14,0.009557420246427951,0.014153418864664037,0.006177605909412048,0.16363040910361953,0.043122847829802455,0.008179808857877117
0.141,0.009687529045358032,0.014233262058880439,0.006211501524716468,0.1660008550999736,0.042679624801071514,0.008103487269427058
0.142,0.009816156443902085,0.014309687402950555,0.006244355190013009,0.16836004527533907,0.042230679511099614,0.00802641759478517
0.143,0.009943197315564714,0.014382596799690776,0.0062761160288335475,0.17070616947180442,0.041776230785792706,0.007948683602483879
0.144,0.010068547299558205,0.01445189477077388,0.006306733945957388,0.17303741215041177,0.04131649846522513,0.007870369274599363
0.145,0.01019210294649527,0.014517488659926317,0.0063361597385628325,0.1753519544931027,0.04085170334800376,0.0077915587149144086
0.146,0.010313761863992015,0.014579288833403132,0.00636434520617838,0.1776479764973294,0.040382067130350405,0.007712336058215353
0.147,0.01043342286190972,0.01463720887702595,0.006391243259112611,0.17992365905785793,0.039907812340548104,0.007632785380807135
0.148,0.01055098609694746,0.01469116578905721,0.0064168080250394865,0.1821771860300671,0.03942916226950271,0.007552990612326154
0.149,0.010666353216290057,0.014741080168175538,0.006440994953411658,0.18440674626920162,0.03894634089815632,0.007473035448929177
0.15,0.010779427500017544,0.014786876395805667,0.006463760917366531,0.1866105356407027,0.03845957282240251,0.007393003267938808
0.151,0.010890114001984834,0.01482848281203711,0.0064850643127797375,0.1887867589978712,0.037969083176040454,0.007312977044026657
0.152,0.010998319688876108,0.0148658318843432,0.006504865154110675,0.1909336321245106,0.037475097552199244,0.007233039267008892
0.153,0.011103953577129799,0.014898860368299715,0.006523125166676013,0.19304938364160157,0.0369778419235821,0.007153271861315066
0.154,0.011206926867424947,0.014927509459517064,0.006539807874980409,0.19513225687825084,0.036477542561823714,0.007073756107175568
0.155,0.011307153076422952,0.014951724936046991,0.00655487868673225,0.19718051170797987,0.03597442595621222,0.006994572563563014
0.156,0.011404548165466339,0.01497145729059214,0.006568304972180381,0.19919242635178952,0.035468718731988966,0.006915800992923062
0.157,0.011499030665941427,0.014986661851922007,0.006580056138425918,0.20116629914939005,0.034960647568394926,0.006837520287738767
0.158,0.011590521801012546,0.014997298894981899,0.006590103698385132,0.2031004502996633,0.034450439116577046,0.006759808398982021
0.159,0.011678945603436778,0.015003333739276186,0.006598421334098006,0.20499322357104083,0.03393831991739992,0.006682742266508051
0.16,0.011764229029176222,0.015004736835203519,0.006604984954094124,0.2068429879821961,0.03342451631912721,0.006606397751441472
0.161,0.01184630206654276,0.01500148383810018,0.006609772744556647,0.20864813945332333,0.03290925439485036,0.006530849570587867
0.162,0.011925097840635794,0.01499355566980337,0.006612765214081055,0.21040710242828525,0.032392759859461606,0.006456171232887647
0.163,0.012000552712855588,0.014980938567597565,0.006613945231905606,0.2121183314680231,0.03187525798590473,0.0063824349779118775
0.164,0.012072606375282981,0.014963624120482103,0.006613298059573985,0.21378031281581983,0.0313569735203926,0.0063097117163836485
0.165,0.012141201939710656,0.014941609292803863,0.006610811376054849,0.21539156593528838,0.03083813059625236,0.0062380709726951675
0.166,0.012206286021104639,0.014914896435410564,0.006606475296380832,0.21695064502229425,0.030318952646040054,0.006167580829384676
0.167,0.0122678088152798,0.014883493284560689,0.006600282383889914,0.2184561404923586,0.02979966231154746,0.0060983078735436305
0.168,0.012325724170590458,0.014847412948858163,0.006592227656170872,0.2199066804453667,0.02928048135130297,0.0060303171451426725
0.169,0.012379989653458753,0.01480667388447295,0.0065823085848423345,0.22130093210957205,0.02876163054515734,0.005963672087286949
0.17,0.012430566607581961,0.014761299858886464,0.006570525089331688,0.2226376032669062,0.028243329595549965,0.005898434498429473
0.171,0.012477420206677345,0.014711319903389001,0.0065568795248572755,0.22391544366145547,0.02772579702505775,0.005834664486585811
0.172,0.012520519500649769,0.014656768254573294,0.006541376664845234,0.22513324639263438,0.027209250069825868,0.00577242042560903
0.173,0.012559837455108787,0.014597684285113193,0.006524023678025776,0.22628984929408552,0.02669390456849787,0.005711758913600178
0.174,0.012595350984210016,0.014534112424173753,0.0065048301004528245,0.22738413629870946,0.02617997484635399,0.005652734733540334
0.175,0.012627040976832348,0.014466102067851237,0.006483807802679761,0.2284150387895612,0.025667673594538643,0.0055954008162320944
0.176,0.012654892316117768,0.014393707480082982,0.006460970952309889,0.22938153693574048,0.025157211744450323,0.005539808205634711
0.177,0.01267889389240035,0.014316987684499466,0.006436335972131275,0.2302826610119143,0.024648798337509815,0.005486006026672954
0.178,0.012699038609551034,0.014236006347719736,0.006409921494046753,0.23111749269975468,0.024142640390601034,0.005434041455596256
0.179,0.0127153233847757,0.014150831654623658,0.006381748309019997,0.23188516636933648,0.02363894275752103,0.005383959692958439
0.18,0.012727749141923598,0.014061536176169525,0.00635183931327192,0.23258487033839367,0.023137907986815764,0.005335803939277232
0.181,0.012736320798380992,0.013968196730352746,0.006320219450972756,0.23321584810724552,0.022639736176432217,0.005289615373418313
0.182,0.012741047245633474,0.013870894236911482,0.006286915653681419,0.2337773995671583,0.022144624825687385,0.005245433133734468
0.183,0.012741941323581233,0.01376971356638006,0.006251956776784505,0.23426888217986536,0.021652768685132953,0.0052032943019792825
0.184,0.012739019788692744,0.013664743384078127,0.006215373533182614,0.23468971212589704,0.02116435960496142,0.005163233890006337
0.185,0.012732303276090378,0.013556075989605931,0.006177198424464173,0.23503936541922588,0.020679586382636738,0.005125284829258452
0.186,0.01272181625567281,0.013443807152394545,0.0061374656698006454,0.23531737898546362,0.020198634610439765,0.0050894779630478
0.187,0.012707586982385046,0.013328035943834322,0.006096211132794973,0.23552335170041278,0.019721686523609547,0.005055842041626793
0.188,0.01268964744074708,0.013208864566474703,0.006053472246517546,0.23565694538516918,0.019248920849746574,0.00502440372004891
0.189,0.012668033283758654,0.013086398180753299,0.0060092879369683895,0.23571788575323324,0.018780512660123948,0.004995187558814039
0.19,0.012642783766323749,0.012960744729675526,0.00596369854520723,0.23570596330430385,0.018316633223527064,0.004968216027283331
0.191,0.012613941673384425,0.012832014761834983,0.005916745748392215,0.23562103415871188,0.017857449863212766,0.004943509509835605
0.192,0.0125815532430056,0.012700321253144721,0.0058684724799626335,0.23546302082588305,0.01740312581754599,0.004921086314723421
0.193,0.012545668084690372,0.01256577942764191,0.005818922849192151,0.23523191289985362,0.01695382010483436,0.004900962685573606
0.194,0.012506339093217264,0.012428506577728773,0.005768142060328968,0.2349277676747113,0.016509687392837157,0.004883152815464591
0.195,0.012463622358277188,0.012288621884212658,0.005716176331529329,0.23455071067288427,0.016070877873376545,0.004867668863500254
0.196,0.012417577070158763,0.012146246236499682,0.005663072813781174,0.23410093607943008,0.01563753714243018,0.004854520973787122
0.197,0.01236826542169845,0.012001502053276625,0.005608879510004201,0.23357870707586767,0.015209806086040369,0.004843717296711192
0.198,0.012315752506686019,0.01185451310399032,0.005553645194500063,0.23298435606762635,0.014787820772336348,0.004835264012404543
0.199,0.012260106214900365,0.011705404331411842,0.005497419332911052,0.23231828479981856,0.014371712349929152,0.004829165356289603
0.2,0.012201397123945242,0.011554301675560819,0.005440252002828431,0.23158096435670056,0.013961606952901008,0.004825423646587474
0.201,0.01213969838805725,0.011401331899261659,0.005382193815174283,0.23077293504075302,0.013557625612574549,0.004824039313673578
0.202,0.012075085624069158,0.011246622415600194,0.005323295836465712,0.22989480612767155,0.013159884176214961,0.00482501093115799
0.203,0.012007636794732974,0.011090301117539857,0.0052636095120599975,0.2289472554936753,0.012768493232791157,0.004828335248559388
0.204,0.011937432089639564,0.010932496209940886,0.005203186590475371,0.22793102911158353,0.012383558045898664,0.004834007225430879
0.205,0.011864553804010086,0.01077333604420718,0.005142079048883442,0.22684694041238193,0.012005178493923898,0.00484202006678435
0.206,0.011789086215668468,0.010612948955764798,0.005080339019871574,0.2256958695097635,0.011633449017502174,0.0048523652596491424
0.207,0.011711115460523341,0.010451463104557655,0.005018018719572259,0.2244787622864163,0.011268458574288882,0.00486503261059237
0.208,0.011630729406887537,0.010289006318737564,0.004955170377249882,0.2231966293424684,0.010910290601027913,0.004880010284021231
0.209,0.011548017528946517,0.010125705941730163,0.004891846166424716,0.2218505448082403,0.010559022982871175,0.004897284841080215
0.21,0.011463070779660349,0.009961688682867365,0.004828098137603033,0.2204416450250777,0.010214728029881966,0.004916841278948089
0.211,0.0113759814633535,0.00979708047178091,0.004763978152673266,0.2189711270993706,0.009877472460640068,0.004938663070335815
0.212,0.01128684310821835,0.009632006316747137,0.004699537821021944,0.21744024733579875,0.009547317392851017,0.00496273220299312
0.213,0.011195750338935204,0.009466590167160897,0.0046348284374172575,0.2158503195563225,0.009224318340844386,0.004989029219048759
0.214,0.011102798749595875,0.00930095478029764,0.004569900921700889,0.21420271331147617,0.008908525219830852,0.005017533254031769
0.215,0.011008084777109028,0.009135221592499429,0.004504805760321223,0.21249885199022084,0.008599982356779104,0.005048222075444469
0.216,0.010911705575260616,0.008969510594894953,0.004439592949736217,0.21074021083415495,0.008298728507768227,0.0050810721207856825
0.217,0.01081375888959882,0.008803940213736422,0.004374311941714154,0.20892831486144822,0.008004796881666424,0.0051160585349583725
0.218,0.010714342933308764,0.00863862719540784,0.004309011590563869,0.20706473670556977,0.007718215169984499,0.005153155207035645
0.219,0.010613556264240086,0.008473686496131907,0.004243740102329772,0.20515109437374351,0.007439005582755189,0.00519233480639233
0.22,0.010511497663251936,0.008309231176381033,0.00417854498598856,0.20318904893006676,0.007167184890295402,0.005233568818228249
0.221,0.010408266014044583,0.008145372299984934,0.004113473006682821,0.20118030210834745,0.006902764470713952,0.005276827578514662
0.222,0.01030396018465081,0.007982218837922522,0.004048570141021551,0.19912659385993303,0.006645750363029875,0.005322080308394163
0.223,0.010198678910759672,0.00781987757678514,0.003983881534469419,0.19702969984208282,0.006396143325765243,0.005369295148063518
0.224,0.010092520681038126,0.007658453031895366,0.003919451460836346,0.1948914288527451,0.0061539389008738446,0.005418439190172795
0.225,0.00998558362460484,0.007498047365055563,0.003855323283868088,0.19271362021790206,0.005919127482866791,0.005469478512784764
0.226,0.009877965400800628,0.00733876030688207,0.0037915394209289506,0.19049814113791314,0.005691694392998548,0.005522378211954386
0.227,0.009769763091393517,0.007180689083658836,0.0037281413087615896,0.18824688399948974,0.005471619958377278,0.005577102434003532
0.228,0.009661073095350048,0.0070239283486255005,0.0036651693713070305,0.18596176366006034,0.005258879595857238,0.005633614407575031
0.229,0.00955199102629452,0.006868570117604412,0.0036026629895685234,0.18364471471133803,0.005053443900558821,0.005691876475552775
0.23,0.009442611612764315,0.006714703708869359,0.0035406604735025056,0.18129768872889163,0.004855278738847152,0.005751850126934112
0.231,0.009333028601353575,0.006562415687163364,0.003479199035917854,0.17892265151444525,0.004664345345586638,0.0058134960287380445
0.232,0.009223334662818335,0.006411789811781671,0.0034183147683626357,0.17652158033747403,0.004480600425478318,0.005876774058026968
0.233,0.009113621301194188,0.006262906988648213,0.003358042618977726,0.17409646118240302,0.00430399625827852,0.005941643334110951
0.234,0.009003978765954502,0.006115845226327322,0.003298416372298413,0.1716492860073435,0.004134480807688321,0.006008062250994008
0.235,0.008894495967214863,0.005970679595922768,0.0032394686309863557,0.16918205001982492,0.003971997833692421,0.006075988510113475
0.236,0.008785260393967135,0.005827482194819233,0.003181230799473956,0.16669674897444228,0.003816487008114645,0.00614537915341807
0.237,0.008676358035303651,0.0056863221142171355,0.0031237330695018835,0.1641953764968063,0.003667884033148775,0.006216190596827984
0.238,0.008567873304570803,0.005547265410405787,0.003067004407528916,0.16167992143771456,0.0035261207626198186,0.006288378664119502
0.239,0.008459888966378573,0.0054103750797183745,0.0030110725439911686,0.15915236526109733,0.00339112532573153,0.006361898621274969
0.24,0.008352486066396658,0.005275711037118665,0.0029559639643845946,0.15661467946904348,0.003262822253058193,0.006436705211334296
0.241,0.00824574386389239,0.005143330098383251,0.002901703902140392,0.15406882306707767,0.0031411326045397425,0.006512752689776242
0.242,0.008139739767005282,0.005013285965860967,0.002848316333258496,0.1515167400728186,0.0030259740992379784,0.006589994860447889
0.243,0.008034549270795378,0.004885629217806261,0.0027958239726606536,0.1489603570711711,0.0029172612466083236,0.0066683851120526915
0.244,0.007930245898134495,0.004760407301290328,0.0027442482722230175,0.14640158081926685,0.002814905479038155,0.006747876455204264
0.245,0.0078269011435245,0.004637664528691441,0.0026936094204497796,0.1438422959044619,0.0027188152854009224,0.0068284215600541345
0.246,0.007724584419928128,0.0045174420777573665,0.00264392634375322,0.14128436245881437,0.002628896345375632,0.0069099727945043906
0.247,0.007623363008692672,0.004399777995222077,0.002595216709308814,0.1387296139335854,0.002545051664284263,0.006992482263017348
0.248,0.007523302012639773,0.004284707203948452,0.002547496929455009,0.13617985493740525,0.0024671817082066064,0.007075901846031434
0.249,0.007424464312386934,0.004172261513559058,0.002500782167607236,0.1336368591417947,0.0023951845391432685,0.007160183239984154
0.25,0.0073269105259591,0.004062469634508549,0.002455086345656817,0.1311023672577118,0.002328955950011019,0.0072452779979301045
0.251,0.00723069897174204,0.003955357195544265,0.002410422152827469,0.12857808508669458,0.002268389599266902,0.0073311375707271285
0.252,0.007135885634822315,0.0038509467644966687,0.0023668010559628173,0.12606568164999127,0.002213377144967804,0.007417713348749435
0.253,0.007042524136750799,0.003749257872338412,0.002324233311216413,0.12356678739881247,0.002163808378082693,0.007504956704074778
0.254,0.006950665708757262,0.003650307040449603,0.0022827279771120146,0.12108299250851319,0.0021195713548873172,0.007592819033084868
0.255,0.006860359168431431,0.003554107811025547,0.0022422929289377517,0.11861584525913733,0.0020805525282851724,0.007681251799415669
0.256,0.006771650899870271,0.003460670780560126,0.0022029348744338107,0.11616685050438114,0.0020466368779128922,0.007770206577199057
0.257,0.006684584837273354,0.0033700036363325664,0.0021646593707293662,0.11373746823071118,0.002017708038902141,0.007859635094548907
0.258,0.00659920245194989,0.0032821111958192635,0.0021274708424807885,0.1113291122081322,0.0019936484291822425,0.007949489277257029
0.259,0.006515542742683708,0.0031969954489472793,0.0020913726011596917,0.10894314873391917,0.00197433937521702,0.008039721292668668
0.26,0.006433642229386663,0.003114655603102377,0.0020563668654356676,0.10658089547045121,0.0019596612360769186,0.008130283593699954
0.261,0.006353534949956929,0.003035088130801229,0.0020224547825939323,0.10424362037808825,0.0019494935257572585,0.008221128962944824
0.262,0.006275252460248597,0.0029582868199339463,0.001989636450922525,0.1019325407438378,0.0019437150336682044,0.008312210556805887
0.263,0.006198823837056047,0.002884242826479995,0.0019579109429976992,0.09964882230640891,0.001942203943239534,0.008403481949578507
0.264,0.0061242756840220545,0.0028129447295993947,0.0019272763297913742,0.09739357847815319,0.001944837948597874,0.008494897177419535
0.265,0.006051632140388848,0.002744378589002106,0.001897729705523352,0.09516786966431573,0.0019514943692819883,0.008586410782134886
0.266,0.005980914892519334,0.0026785280044996536,0.0018692672131849037,0.09297270267992054,0.0019620502629639617,0.00867797785471858
0.267,0.005912143188117082,0.002615374177642418,0.0018418840706680157,0.09080903026448225,0.001976382536143719,0.00876955407856986
0.268,0.005845333853068765,0.0025548959753440115,0.0018155745974426038,0.0886777506945841,0.0019943680527835864,0.00886109577230653
0.269,0.005780501310825117,0.0024970699953921175,0.001790332241729447,0.08657970749422246,0.0020158837408498684,0.00895255993208402
0.27,0.005717657604229192,0.0024418706337432875,0.001766149608119531,0.08451568924269941,0.0020408066967297304,0.009043904273323015
0.271,0.005656812419697615,0.002389270153496741,0.0017430184855930476,0.08248642947971989,0.0020690142874930846,0.00913508727174599
0.272,0.005597973113663615,0.0023392387554392563,0.001720929875894844,0.08049260670718361,0.002100384250970117,0.009226068203622819
0.273,0.0055411447412002145,0.0022917446500509624,0.0016998740222269463,0.07853484448693451,0.002134794793616042,0.009316807185124128
0.274,0.005486330086756428,0.0022467541308612646,0.0016798404382219615,0.07661371163345454,0.0021721246861352976,0.00940726521067324
0.275,0.0054335296969574174,0.0022042316490449186,0.0016608179371635447,0.0747297225001897,0.0022122533568364002,0.009497404190173205
0.276,0.005382741915438005,0.0021641398891491317,0.0016427946614216292,0.07288333735789632,0.002255060982685852,0.00958718698497098
0.277,0.005333962919692349,0.0021264398458424715,0.0016257581120702005,0.07107496286311059,0.0023004285780264485,0.009676577442414637
0.278,0.005287186759927088,0.002091090901574844,0.0016096951786537168,0.06930495261458024,0.002348238080923894,0.009765540428862032
0.279,0.005242405399901577,0.0020580509050346293,0.0015945921690653302,0.06757360779526463,0.0023983724371067464,0.009854041861003826
0.28,0.0051996087597308395,0.0020272762502845315,0.0015804348394965627,0.06588117789731715,0.0024507156814681324,0.00994204873536331
0.281,0.005158784760617993,0.001998721956453366,0.001567208424414666,0.0642278615273152,0.0025051530171017774,0.010029529155831196
0.282,0.005119919371473466,0.001972341747858495,0.0015548976665211102,0.06261380728888119,0.0025615708918474635,0.010116452359089145
0.283,0.0050829966573673275,0.001948088134433572,0.0015434868466430223,0.061039114739712894,0.0026198570723210642,0.010202788737775246
0.284,0.005047998829747558,0.001925912492338165,0.0015329598135088837,0.05950383541988776,0.0026799007154022824,0.010288509861250305
0.285,0.005014906298341878,0.0019057651446292758,0.0015233000133597547,0.05800797394812112,0.002741592437149808,0.01037358849383852
0.286,0.004983697724644885,0.0018875954418797684,0.0015144905193474993,0.05655148918245939,0.0028048243791090476,0.010457998610442774
0.287,0.004954350076877768,0.001871351842635178,0.0015065140606723049,0.05513429544169212,0.0028694902719727552,0.010541715409473832
0.288,0.004926838686298202,0.001856981993607167,0.0014993530514132792,0.05375626378357879,0.0029354854965524995,0.010624715323079077
0.289,0.00490113730473567,0.001844432809507314,0.0014929896190070898,0.05241722333580379,0.0030027071420219405,0.01070697602470373
0.29,0.004877218163230336,0.0018336505524281686,0.0014874056323298187,0.05111696267539182,0.0030710540614013082,0.010788476434063762
0.291,0.0048550520316561,0.0018245809106798919,0.0014825827293371541,0.04985523125213577,0.0031404269242622227,0.010869196719651955
0.292,0.00483460827920609,0.0018171690769911788,0.001478502344219534,0.04863174085141651,0.0032107282666387744,0.010949118298927583
0.293,0.004815854935611999,0.001811359825982951,0.0014751457340326753,0.04744616709163425,0.0032818625381337853,0.011028223836347658
0.294,0.004798758752959996,0.0018070975908226305,0.0014724940047687377,0.04629815095132823,0.0033537361462107236,0.011106497239386375
0.295,0.004783285267957722,0.001804326538965405,0.0014705281368371783,0.04518730032094161,0.00342625749766444,0.011183923652669125
0.296,0.004769398864499549,0.001802990646886543,0.0014692290099268103,0.04411319157411302,0.0034993370372693824,0.011260489450327283
0.297,0.004757062836371901,0.001803033773705573,0.0014685774272226561,0.04307537115337903,0.003572887283612486,0.011336182226664826
0.298,0.004746239449940292,0.0018043997336000496,0.001468554138953852,0.0420733571652785,0.0036468228621279715,0.011410990785218273
0.299,0.004736890006668772,0.001807032366905945,0.001469139865253094,0.04110664098004824,0.003721060535359317,0.011484905126283059
0.3,0.004728974905339521,0.0018108756098061387,0.0014703153183145063,0.040174688831346846,0.003795519230477066,0.011557916432965958
0.301,0.004722453703858454,0.001815873562518244,0.0014720612238440524,0.039276943411678714,0.0038701200640813304,0.011630017055802945
0.302,0.004717285180546054,0.0018219705559045446,0.0014743583418020028,0.038412825459376576,0.003944786364318776,0.011701200495960263
0.303,0.00471342739482319,0.0018291112164360204,0.0014771874864391756,0.037581735333144406,0.004019443690346608,0.011771461387020048
0.304,0.004710837747215512,0.0018372405294485037,0.0014805295456282576,0.036783054570316547,0.004094019849177935,0.011840795475340393
0.305,0.004709473038618343,0.0018463039006331864,0.0014843654994896327,0.036016147425211496,0.004168444909941554,0.011909199598964946
0.306,0.00470928952878194,0.0018562472157061134,0.0014886764383088636,0.0352803623842695,0.004242651215585245,0.011976671665033767
0.307,0.004710242993989462,0.001867016898201234,0.0014934435797413035,0.03457503365503716,0.004316573392046981,0.0120432106256176
0.308,0.00471228878390577,0.0018785599653301274,0.0014986482852987046,0.033899482626455375,0.004390148354913463,0.012108816451869888
0.309,0.004715381877575923,0.0018908240818521517,0.0015042720761126258,0.033253019298292004,0.00446331531358012,0.012173490106371337
0.31,0.004719476938550473,0.001903757611904779,0.0015102966479695458,0.032634943677933924,0.004536015772921096,0.012237233513535735
0.311,0.004724528369113698,0.0019173096687553073,0.0015167038856132413,0.03204454714310862,0.00460819353247271,0.012300049527957145
0.312,0.004730490363591599,0.0019314301624483187,0.0015234758763114733,0.031481113769414544,0.004679794683129841,0.01236194190060583
0.313,0.00473731696071682,0.0019460698453333365,0.0015305949226855704,0.030943921621760937,0.004750767601352275,0.012422915242812901
0.314,0.004744962095024384,0.0019611803554615754,0.0015380435548020463,0.030432244008930628,0.004821062940877392,0.012482974988015073
0.315,0.00475337964724403,0.0019767142578403594,0.0015458045415248458,0.02994535070050078,0.004890633621937656,0.01254212735127026
0.316,0.004762523493643569,0.0019926250835315415,0.001553860901126241,0.02948250910533746,0.004959434817989304,0.012600379286615277
0.317,0.004772347554265166,0.0020088673665786885,0.0015621959111548935,0.02904298541087304,0.005027423939974855,0.012657738442408348
0.318,0.004782805839985267,0.002025396678748467,0.0015707931175611314,0.02862604568240155,0.005094560618163079,0.012714213114851745
0.319,0.004793852498321145,0.002042169662075339,0.0015796363430809351,0.02823095692166781,0.005160806681627215,0.01276981219990669
0.32,0.004805441857904686,0.0020591440592045915,0.001588709694880504,0.027856988084067016,0.005226126135429751,0.012824545143802095
0.321,0.004817528471546636,0.002076278741534322,0.0015979975714626152,0.0275034110538321,0.005290485135582199,0.012878421892316446
0.322,0.004830067157818758,0.0020935337351596,0.0016074846688353265,0.02716950157669561,0.0053538519618466975,0.012931452838985003
0.323,0.004843013041085618,0.0021108702446215348,0.001617155985944546,0.02685454014966549,0.005416196988444697,0.012983648772354098
0.324,0.0048563215899243084,0.002128250674462771,0.0016269968293757657,0.02655781286771052,0.00547749265273495,0.013035020822374777
0.325,0.004869948653881772,0.0021456386485919202,0.0016369928173367014,0.026278612227280045,0.005537713421918125,0.013085580406004153
0.326,0.00488385049853372,0.002162999027464488,0.0016471298829401648,0.026016237886680373,0.005596835757821131,0.013135339172069039
0.327,0.004897983838822936,0.002180297923097018,0.0016573942768132492,0.025769997383406736,0.005654838079812311,0.013184308945447146
0.328,0.0049123058706656165,0.0021975027119421867,0.001667772569063543,0.02553920680859846,0.005711700725899207,0.013232501670643696
0.329,0.00492677430082108,0.0022145820456621664,0.001678251650635629,0.02532319143886347,0.005767405912065027,0.013279929354888514
0.33,0.004941347375024389,0.0022315058598442526,0.0016888187340926674,0.02512128632581783,0.005821937689910899,0.013326604010943688
0.331,0.004955983904389648,0.002248245380707503,0.0016994613538589415,0.02493283684380128,0.005875281902690158,0.01337253759988368
0.332,0.004970643290111714,0.0022647731298536156,0.0017101673659597673,0.024757199196351522,0.005927426139846525,0.013417741974181411
0.333,0.0049852855465256874,0.002281062927119687,0.0017209249472951425,0.0245937408821462,0.005978359690194547,0.013462228821494207
0.334,0.004999871322616657,0.0022970898915938894,0.0017317225944832825,0.02444184112124028,0.006028073493901664,0.013506009609579346
0.335,0.005014361922095136,0.002312830440856634,0.0017425491223096285,0.024300891242508105,0.0060765600934444336,0.0135490955327767
0.336,0.005028719322164222,0.002328262288509676,0.0017533936618157467,0.024170295033225996,0.006123813583718852,0.013591497460484554
0.337,0.005042906191108506,0.0023433644400548156,0.0017642456580611236,0.02404946905172268,0.006169829561487799,0.01363322588803405
0.338,0.005056885904837413,0.002358117187182836,0.0017750948675897473,0.023937842904022445,0.0062146050743476285,0.01367429089033999
0.339,0.005070622562517123,0.0023725021005314983,0.0017859313556326444,0.023834859485441225,0.00625813856939063,0.01371470207867128
0.34,0.005084081001424867,0.002386502020967947,0.001796745493076668,0.023739975188173796,0.006300429841730848,0.013754468560846231
0.341,0.005097226811157389,0.002400101049446385,0.0018075279532283688,0.023652660076012574,0.0063414799830478555,0.01379359890512154
0.342,0.005110026347321048,0.002413284535487975,0.0018182697083994866,0.02357239802743126,0.006381291330287295,0.013832101108010045
0.343,0.005122446744823178,0.0024260390643270897,0.0018289620263376505,0.02349868684831991,0.006419867414640914,0.01386998256623011
0.344,0.00513445593087429,0.0024383524427654675,0.001839596466522676,0.02343103835566747,0.0064572129109160045,0.01390725005295902
0.345,0.0051460226378016345,0.002450213683773072,0.0018501648763457298,0.023368978433475462,0.006493333587397053,0.013943909698534094
0.346,0.005157116415767584,0.0024616129898718843,0.0018606593871857563,0.023312047062181138,0.006528236256300779,0.013979966975715805
0.347,0.005167707645479297,0.0024725417353361747,0.0018710724103953751,0.02325979832288499,0.006561928724926455,0.014015426689593184
0.348,0.005177767550967709,0.0024829924472388088,0.0018813966332075606,0.023211800377713268,0.0065944197476024615,0.014050292972171445
0.349,0.005187268212504792,0.00249295878536705,0.001891625014574518,0.0231676354276902,0.0066257189785248905,0.014084569281637304
0.35,0.005196182579718713,0.002502435521024159,0.001901750780950182,0.023126899649531015,0.006655836925574911,0.014118258406252167
0.351,0.00520448448495565,0.0025114185147272067,0.0019117674220269728,0.02308920311278025,0.006684784905190476,0.01415136247278087
0.352,0.005212148656923698,0.002519904692809907,0.0019216686864359954,0.023054169678703634,0.00671257499835591,0.014183882959328448
0.353,0.005219150734639262,0.002527892022943547,0.0019314485774184296,0.02302143688230175,0.006739220007760477,0.01421582071243326
0.354,0.005225467281681723,0.002535379488597958,0.0019411013484753766,0.022990655798767315,0.006764733416163804,0.014247175968250887
0.355,0.00523107580074955,0.0025423670624739295,0.0019506214990040922,0.02296149089566766,0.006789129345992938,0.014277948377652443
0.356,0.005235954748501215,0.002548855678945318,0.0019600037699293656,0.02293361987209913,0.006812422520185456,0.014308137035045717
0.357,0.005240083550656902,0.0025548472055532995,0.0019692431393382543,0.022906733486022797,0.006834628224287399,0.014337740510704659
0.358,0.005243442617330432,0.002560344413598172,0.001978334818123944,0.022880535370944803,0.006855762269812616,0.014366756886365227
0.359,0.005246013358554118,0.002565350947876386,0.0019872742456409536,0.022854741843054895,0.006875840958867676,0.014395183793818008
0.36,0.0052477781999528085,0.0025698712956123775,0.0019960570853711102,0.022829081699894952,0.00689488105003949,0.014423018456200523
0.361,0.005248720598517433,0.0025739107546376943,0.002004679220600042,0.022803296011601,0.006912899725528989,0.014450257731662999
0.362,0.005248825058421689,0.0025774754008753885,0.0020131367501084693,0.02277713790573652,0.006929914559495441,0.014476898159049682
0.363,0.005248077146817303,0.00258057205519507,0.0020214259838891484,0.02275037234669637,0.006945943487556788,0.014502936005205358
0.364,0.00524646350953428,0.0025832082497107183,0.002029543438904991,0.022722775910604166,0.006961004777374976,0.01452836731348671
0.365,0.005243971886603589,0.002585392193596907,0.002037485834904603,0.022694136556558064,0.006975117000243092,0.014553187953038315
0.366,0.005240591127510406,0.002587132738498841,0.0020452500903094598,0.022664253395009406,0.006988299003583133,0.014577393668396952
0.367,0.0052363112060753725,0.002588439343608848,0.002052833318184669,0.02263293645399243,0.007000569884259342,0.014600980129026098
0.368,0.0052311232348496465,0.002589322040478859,0.0020602328223041652,0.02260000644386572,0.007011948962613448,0.014623942978452584
0.369,0.005225019478898692,0.0025897913976359725,0.0020674460933208434,0.022565294521178916,0.007022455757137011,0.014646277882758112
0.37,0.005217993368842958,0.0025898584850655684,0.0020744708050512927,0.022528642052241418,0.007032109959711622,0.01466798057824871
0.371,0.0052100395130225095,0.0025895348386224793,0.0020813048108824627,0.0224899003769456,0.007040931411364084,0.014689046918185001
0.372,0.005201153708654704,0.0025888324244260482,0.0020879461403041817,0.022448930573390792,0.007048940078494258,0.014709472918530926
0.373,0.0051913329518538985,0.0025877636032913235,0.0020943929955683505,0.02240560322386698,0.0070561560295372755,0.014729254802784687
0.374,0.005180575446377415,0.002586341095247599,0.0021006437484740893,0.022359798182777373,0.007062599412025225,0.014748389046070587
0.375,0.005168880610953986,0.0025845779441966755,0.002106696937278082,0.022311404347085888,0.007068290430024121,0.014766872418749013
0.376,0.0051562490850425,0.0025824874827651656,0.002112551263729823,0.022260319429854444,0.007073249321943249,0.01478470202982169
0.377,0.005142682732861707,0.002580083297407231,0.0021182055902313488,0.022206449737385905,0.007077496338743245,0.014801875370385542
0.378,0.005128184645526119,0.0025773791938165204,0.0021236589371201762,0.022149709950422584,0.00708105172260037,0.014818390357348775
0.379,0.005112759141121521,0.002574389162708443,0.002128910480073012,0.022090022909781976,0.0070839356861110495,0.014834245377584985
0.38,0.005096411762559532,0.0025711273460345737,0.0021339595476265474,0.02202731940675628,0.007086168392137711,0.014849439332668746
0.381,0.005079149273067777,0.0025676080036887102,0.002138805618809955,0.021961537978568955,0.007087769934404026,0.014863971684306714
0.382,0.005060979649200224,0.0025638454807594244,0.0021434483208812543,0.021892624709163762,0.007088760318948497,0.014877842500548294
0.383,0.005041912071288171,0.0025598541753792574,0.0021478874271572117,0.021820533035582616,0.007089159446542735,0.014891052502830767
0.384,0.00502195691129115,0.0025556485072186466,0.0021521228549251548,0.021745223560153473,0.007088987096173534,0.0149036031138887
0.385,0.005001125718039386,0.002551242886673768,0.002156154663425321,0.021666663868657114,0.007088262909673813,0.01491549650653654
0.386,0.0049794311998761056,0.0025466516847991957,0.002159983051892895,0.021584828354579276,0.007087006377568153,0.014926735653312631
0.387,0.004956887204708664,0.002541889204035744,0.002163608357648666,0.02149969804949044,0.007085236826180664,0.014937324376949205
0.388,0.00493350869747222,0.0025369696497803307,0.0021670310542266217,0.02141126045953429,0.007082973406043943,0.014947267401605383
0.389,0.004909311735012708,0.0025319071028391646,0.002170251749526154,0.02131950940794898,0.007080235081648824,0.014956570404771706
0.39,0.004884313438415136,0.0025267154927988635,0.002173271183975552,0.021224444883493333,0.007077040622577863,0.014965240069730565
0.391,0.004858531962836464,0.002521408572342967,0.0021760902286917143,0.021126072894601788,0.007073408596061819,0.01497328413843987
0.392,0.004831986464939617,0.0025159998925346786,0.0021787098836193253,0.021024405329046286,0.007069357360985596,0.014980711464694773
0.393,0.004804697068057909,0.002510502779081738,0.002181131275631968,0.020919459818840372,0.007064905063353021,0.014987532067412134
0.394,0.004776684825244008,0.0025049303095963167,0.002183355656578616,0.020811259610086376,0.007060069633203575,0.014993757183876714
0.395,0.004747971680373834,0.002499295291860918,0.0021853844012619987,0.020699833437453168,0.007054868782961085,0.014999399322786284
0.396,0.004718580427482548,0.0024936102431094764,0.002187219005340202,0.02058521540299321,0.007049320007184672,0.01500447231692754
0.397,0.004688534668507609,0.0024878873703311037,0.0021888610831479077,0.02046744485906845,0.0070434405836844365,0.015008991375299489
0.398,0.004657858769607045,0.002482138551602805,0.002190312365437257,0.020346566295243,0.0070372475759576305,0.015012973134483795
0.399,0.004626577816215485,0.0024763753184576117,0.0021915746970396807,0.02022262922909172,0.007030757836896027,0.015016435709058428
0.4,0.0045947175669987204,0.002470608839296674,0.002192650034449513,0.020095688100943452,0.007023988013715358,0.015019398740868831
0.401,0.004562304406867941,0.0024648499038581453,0.002193540443328726,0.0199658021726162,0.007016954554064147,0.015021883446999803
0.402,0.004529365299215345,0.0024591089087606594,0.0021942480959299313,0.019833035430214786,0.007009673713278071,0.01502391266631496
0.403,0.004495927737532614,0.002453395844141678,0.0021947752684314164,0.019697456491055327,0.007002161562750673,0.015025510904438603
0.404,0.004462019696572178,0.0024477202814090046,0.0021951243381732885,0.01955913851475789,0.006994433999389871,0.015026704377045626
0.405,0.004427669583208122,0.002442091362118631,0.0021952977807792123,0.019418159118512735,0.006986506756127439,0.015027521051302572
0.406,0.004392906187149624,0.0024365177879872484,0.0021952981671453445,0.019274600296481818,0.006978395413451916,0.015027990685271208
0.407,0.004357758631655574,0.002431007812045635,0.0021951281602771047,0.019128548343246277,0.0069701154119458635,0.015028144865049168
0.408,0.004322256324393439,0.0024255692309392974,0.002194790511954482,0.018980093781150797,0.006961682065820338,0.01502801703938637
0.409,0.004286428908577471,0.0024202093783824755,0.0021942880592078426,0.018829331291328022,0.006953110577445428,0.015027642551488868
0.41,0.004250306214512283,0.002414935119768989,0.002193623720589865,0.018676359648115422,0.006944416052871864,0.015027058667708133
0.411,0.004213918211659433,0.0024097528479389715,0.002192800492235149,0.018521281656508713,0.006935613518328117,0.015026304602812643
0.412,0.004177294961336307,0.002404668480096284,0.0021918214437049743,0.018364204092234795,0.006926717937668151,0.015025421541546584
0.413,0.004140466570147251,0.0023996874558683406,0.002190689713618517,0.018205237643974314,0.006917744230744118,0.015024452656188203
0.414,0.004103463144237075,0.002394814736497436,0.0021894085050734474,0.01804449685721555,0.006908707292684953,0.01502344311981613
0.415,0.0040663147444479865,0.002390054805149328,0.0021879810808595936,0.017882100079173385,0.006899622014068218,0.015022440114972736
0.416,0.004029051342453095,0.0023854116683209576,0.002186410758470439,0.017718169404160957,0.006890503301970286,0.015021492837388758
0.417,0.0039917027779326885,0.0023808888583260698,0.002184700904918862,0.01755283061876595,0.0068813661018670555,0.015020652494412333
0.418,0.0039542987168536365,0.0023764894368357814,0.002182854931365095,0.017386213146170684,0.006872225420337518,0.015019972297768875
0.419,0.0039168686109080095,0.002372215999449863,0.002180876287565496,0.017218449988971478,0.0068630963485008046,0.01501950745026242
0.42,0.0038794416581641017,0.0023680706812721636,0.0021787684561506153,0.017049677669889237,0.006853994086098338,0.01501931512601491
0.421,0.0038420467649807055,0.002364055163460407,0.0021765349467417067,0.016880036169796334,0.006844933966119243,0.015019454443833445
0.422,0.0038047125092322658,0.0023601706807179082,0.002174179289917717,0.016709668862493473,0.006835931479860394,0.015019986433303996
0.423,0.0037674671048877183,0.0023564180296930136,0.0021717050310495352,0.016538722445654356,0.0068270023023113404,0.015020973993235978
0.424,0.003730338367979308,0.0023527975782503896,0.0021691157240230846,0.016367346867331524,0.006818162317754889,0.015022481842127993
0.425,0.003693353683990062,0.0023493092755761946,0.0021664149248758406,0.016195695247401082,0.0068094276454708945,0.015024576460406582
0.426,0.0036565399766809504,0.0023459526630776016,0.0021636061853722694,0.016023923793324988,0.006800814665420749,0.015027326024327142
0.427,0.0036199236783727106,0.002342726886036734,0.0021606930465438282,0.01585219170962423,0.006792340043776472,0.01503080033160787
0.428,0.0035835307016934773,0.002339630705979236,0.002157679032220158,0.015680661100476327,0.006784020758148421,0.01503507071903831
0.429,0.0035473864128009436,0.002336662513717697,0.0021545676425804004,0.01550949686487384,0.006775874122367174,0.015040209972410281
0.43,0.0035115156060858506,0.0023338203430296207,0.0021513623477557773,0.015338866583810739,0.0067679178106898824,0.015046292229155296
0.431,0.003475942480362001,0.0023311018849280288,0.002148066581514893,0.015168940399000137,0.0067601698813231316,0.015053392874069876
0.432,0.0034406906165464876,0.0023285045024798233,0.002144683735061116,0.014999890882660995,0.006752648799172972,0.015061588428498491
0.433,0.0034057829568315064,0.0023260252461235246,0.002141217150967839,0.014831892897941444,0.0067453734577415944,0.015070956433335449
0.434,0.0033712417853453223,0.0023236608694349936,0.0021376701172736027,0.014665123449583666,0.006738363200089397,0.015081575326201952
0.435,0.0033370887102946657,0.0023214078452874634,0.002134045861755732,0.014499761524484804,0.006731637838774149,0.015093524313147068
0.436,0.003303344647574576,0.0023192623823506935,0.0021303475463986896,0.014335987921861406,0.006725217674668253,0.015106883235207326
0.437,0.0032700298058250736,0.002317220441873538,0.0021265782620722914,0.014173985072780925,0.006719123514543225,0.01512173243014036
0.438,0.0032371636729077204,0.0023152777546945106,0.0021227410234352,0.014013936848909251,0.006713376687301574,0.01513815258962662
0.439,0.0032047650037701687,0.002313429838425398,0.002118838764079872,0.01385602836046052,0.006707999058733686,0.015156224612212383
0.44,0.0031728518096642605,0.0023116720147541804,0.0021148743319355373,0.013700445743503542,0.006703013044679688,0.015176029452252344
0.441,0.0031414413486828088,0.002309999426817596,0.0021108504849457186,0.013547375936928775,0.006698441622478366,0.015197647965112858
0.442,0.003110550117579563,0.002308407056601599,0.0021067698870368607,0.013397006449489109,0.0066943083405841455,0.015221160748925565
0.443,0.0030801938448336576,0.002306889742337906,0.0021026351043956512,0.013249525117413143,0.006690637326233394,0.015246647983227923
0.444,0.0030503874849137835,0.002305442195873722,0.0020984486020743896,0.013105119853168822,0.006687453291051983,0.015274189264868022
0.445,0.00302114521369057,0.002304059019997528,0.002094212740944974,0.012963978386026032,0.006684781534519363,0.015303863441566113
0.446,0.002992480424941307,0.0023027347257065303,0.0020899297750217433,0.012826287995120223,0.006682647945230083,0.015335748443512532
0.447,0.002964405727891489,0.002301463749402917,0.002085601849172363,0.012692235235749881,0.006681078999910459,0.015369921113351823
0.448,0.002936932945742545,0.0023002404700089045,0.0020812309972351294,0.012562005659647027,0.0066801017601568055,0.01540645703486649
0.449,0.002910073115141237,0.0022990592259949922,0.0020768191405603404,0.012435783529944297,0.006679743866872175,0.015445430360636368
0.45,0.002883836486549517,0.0022979143323194656,0.002072368086991735,0.012313751531533225,0.006680033532396178,0.015486913638917433
0.451,0.002858232525472889,0.002296800097277745,0.0020678795303010083,0.012196090477477505,0.006680999530342704,0.015530977639969095
0.452,0.002833269914502001,0.002295710839258098,0.002063355050084619,0.012082979012122696,0.006682671183174756,0.015577691182072917
0.453,0.0028089565561187553,0.0022946409033975327,0.0020587961121284787,0.011974593311536904,0.00668507834754973,0.015627120957522105
0.454,0.002785299576216687,0.0022935846781295356,0.0020542040692426676,0.011871106781925083,0.006688251397464165,0.015679331358899783
0.455,0.0027623053282876254,0.0022925366116127617,0.0020495801625644394,0.011772689756676065,0.006692221205217593,0.015734384305991094
0.456,0.002739979398232565,0.0022914912280257533,0.002044925523323082,0.011679509192720509,0.006697019120202972,0.015792339073689887
0.457,0.0027183266097614146,0.0022904431437079154,0.0020402411750556843,0.011591728366898079,0.006702676945517057,0.01585325212126766
0.458,0.0026973510303511536,0.002289387083123603,0.002035528036260415,0.011509506573052644,0.006709226912368556,0.015917176923373036
0.459,0.002677055977734911,0.002288317894625717,0.0020307869234746046,0.011432998820590892,0.006716701652246632,0.015984163803129305
0.46,0.0026574440268969184,0.0022872305659966817,0.002026018554767814,0.01136235553524595,0.006725134166801315,0.016054259767698486
0.461,0.0026385170175499914,0.0022861202397458083,0.002021223553642858,0.011297722262779355,0.006734557795385263,0.016127508346678487
0.462,0.002620276062072041,0.0022849822281412954,0.0020164024533386783,0.011239239376332377,0.006745006180212627,0.01620394943369484
0.463,0.002602721553876058,0.0022838120279521984,0.0020115557015273197,0.011187041788106748,0.006756513229099585,0.016283619131545978
0.464,0.0025858531761857625,0.0022826053348709583,0.00200668366539363,0.011141258666020625,0.006769113075759493,0.016366549601265115
0.465,0.0025696699111889256,0.0022813580575809515,0.0020017866370815956,0.01110201315595101,0.006782840037638023,0.016452768915465092
0.466,0.0025541700495438336,0.002280066331426735,0.001996864839486627,0.011069422110140016,0.006797728571295225,0.016542300916328648
0.467,0.0025393512002216795,0.00227872653163787,0.0019919184323689003,0.011043595822309404,0.0068138132253676926,0.01663516507859872
0.468,0.0025252103006770366,0.002277335286051049,0.0019869475187588737,0.01102463776999548,0.006831128591163688,0.01673137637791951
0.469,0.0025117436273471173,0.002275889487270165,0.001981952151621958,0.011012644364583919,0.006849709250951048,0.016830945164879475
0.47,0.002498946806485767,0.0022743863042005673,0.0019769323407455696,0.011007704709492281,0.006869589723996063,0.01693387704510518
0.471,0.00248681482533916,0.0022728231928926417,0.001971888059809493,0.011009900366920072,0.00689080441040841,0.017040172765743575
0.472,0.002475342043668101,0.002271197906631801,0.0019668192536003337,0.011019305133567962,0.0069133875328450875,0.01714982810865342
0.473,0.0024645222056193664,0.0022695085052173674,0.001961725845332642,0.011035984825722829,0.0069373730761230976,0.017262833790612504
0.474,0.0024543484519478223,0.002267753363381175,0.001956607744042389,0.011059997074112338,0.006962794724786732,0.017379175370841642
0.475,0.0024448133325919758,0.0022659311783056668,0.0019514648520226237,0.011091391128944519,0.0069896857986778355,0.017498833166147466
0.476,0.0024359088196061144,0.002264040976208029,0.0019462970722760207,0.011130207675557476,0.0070180791865770515,0.01762178217399054
0.477,0.0024276263204511444,0.0022620821179607773,0.0019411043159633936,0.011176478661109938,0.007048007278023655,0.017747992003788217
0.478,0.002419956691643881,0.00226005430372185,0.0019358865098296294,0.011230227132747052,0.007079501893468314,0.017877426816757597
0.479,0.002412890252761503,0.0022579575765509716,0.001930643603588937,0.011291467087679323,0.007112594212948327,0.01801004527459058
0.48,0.002406416800794261,0.0022557923249951588,0.001925375577252021,0.01136020333561335,0.007147314703491394,0.01814580049723372
0.481,0.0024005256248356313,0.002253559284635193,0.0019200824483803765,0.01143643137396627,0.007183693045458208,0.018284640030022843
0.482,0.0023952055210959113,0.0022512595385963917,0.0019147642792563583,0.011520137276278142,0.0072217580580340645,0.018426505820393426
0.483,0.002390444808223817,0.002248894517039237,0.0019094211839595884,0.011611297594207788,0.007261537624078639,0.018571334204351815
0.484,0.0023862313429208787,0.002246465995654924,0.0019040533353393357,0.011709879273461293,0.007303058614541078,0.018719055902853485
0.485,0.002382552535833746,0.0022439760931950432,0.0018986609718692155,0.011815839583963391,0.007346346812642958,0.018869596028199848
0.486,0.002379395367708604,0.0022414272680640157,0.001893244404366436,0.011929126064543676,0.0073914268380221625,0.01902287410053982
0.487,0.002376746405790285,0.0022388223140004907,0.001887804022554557,0.012049676482372675,0.007438322071015662,0.01917880407454618
0.488,0.00237459182044843,0.002236164354872841,0.001882340301447459,0.012177418807347056,0.007487054577241223,0.01933729437632282
0.489,0.0023729174020162514,0.0022334568386161847,0.0018768538075334036,0.012312271201590142,0.007537645032622019,0.01949824795058294
0.49,0.0023717085778341683,0.0022307035303435942,0.0018713452047418816,0.012454142024207505,0.007590112648988793,0.019661562318123434
0.491,0.0023709504294985796,0.0022279085046694774,0.001865815260182514,0.012602929851420523,0.007644475100394607,0.019827129643611587
0.492,0.00237062771032236,0.0022250761372856163,0.0018602648496535807,0.012758523512192302,0.007700748450286422,0.019994836813691467
0.493,0.002370724863017063,0.002222211095829572,0.0018546949629249544,0.01292080213945704,0.007758947079689987,0.020164565525402307
0.494,0.002371226037608366,0.002219318330082539,0.0018491067088037794,0.013089635237061662,0.007819083616573314,0.020336192384880825
0.495,0.0023721151095968994,0.002216403061530807,0.0018435013199910935,0.013264882762524365,0.007881168866556562,0.020509589016306146
0.496,0.0023733756983759196,0.0022134707723230093,0.0018378801577359732,0.01344639522570736,0.007945211745132259,0.02068462218104791
0.497,0.0023749911859150805,0.0022105271936545367,0.001832244716292443,0.013634013803491177,0.008011219211550725,0.02086115390698812
0.498,0.0023769447357170556,0.0022075782936099206,0.001826596627183391,0.013827570470525751,0.008079196204512943,0.021039041627984676
0.499,0.0023792193120524556,0.0022046302644928577,0.0018209376632743245,0.014026888146116547,0.008149145579799861,0.021218138333416223
0.5,0.0023817976994787637,0.0022016895096724745,0.001815269742657634,0.014231780857278073,0.008221068049956369,0.021398292727697908
0.501,0.0023846625226496606,0.002198762629974128,0.0018095949323455691,0.014442053917953456,0.008294962126141902,0.02157934939959813
0.502,0.002387796266420531,0.002195856409642687,0.0018039154517680391,0.014657504124362898,0.008370824062256957,0.021761149001124334
0.503,0.0023911812962533665,0.0021929778019047384,0.0017982336760701506,0.014877919966411664,0.008448647801453638,0.021943528435685252
0.504,0.002394799878919997,0.0021901339141544057,0.0017925521392042046,0.015103081855059342,0.008528424925136321,0.02212632105518748
0.505,0.002398634203497632,0.0021873319927877663,0.0017868735368113385,0.015332762365520822,0.008610144604554486,0.022309356865696635
0.506,0.002402666402646167,0.002184579407714055,0.0017812007288884712,0.015566726496130697,0.008693793555082643,0.02249246274128376
0.507,0.0024068785741527747,0.0021818836365762326,0.00177553674223635,0.015804731942656594,0.008779355993272182,0.02267546264566589
0.508,0.0024112528027256937,0.002179252248716363,0.0017698847726848356,0.016046529387795393,0.008866813596746676,0.02285817786121862
0.509,0.0024157711820158127,0.002176692888921367,0.0017642481870929064,0.016291862805531583,0.00895614546699877,0.023040427224893717
0.51,0.002420415836842024,0.0021742132609827965,0.001758630525123003,0.016540469779981692,0.009047328095138531,0.023222027370533152
0.511,0.0024251689455940285,0.002171821111102221,0.0017530355007912752,0.016792081838296502,0.009140335330642497,0.023402792977042362
0.512,0.0024300127627831032,0.0021695242111736276,0.0017474670037967153,0.017046424797148345,0.009235138353157885,0.023582537021860604
0.513,0.002434929641706847,0.002167330341976961,0.0017419291006335218,0.017303219122298333,0.00933170564742395,0.02376107103913055
0.514,0.0024399020571893044,0.002165247276321667,0.001736426035492106,0.01756218030071801,0.009430002981380355,0.023938205381914057
0.515,0.0024449126283542537,0.002163282762183465,0.0017309622309539525,0.017823019224724283,0.009529993387538419,0.024113749487730474
0.516,0.002449944141386422,0.0021614445058799163,0.001725542288483887,0.018085442587564858,0.009631637147694595,0.024287512146619648
0.517,0.0024549795722315594,0.0021597401553307915,0.001720170988721132,0.01834915328985681,0.009734891781067023,0.024459301770865874
0.518,0.002460002109180967,0.0021581772834489026,0.0017148532915687179,0.018613850856234262,0.009839712035934069,0.02462892666547431
0.519,0.0024649951752797553,0.0021567633717062473,0.001709594336079443,0.0188792318615083,0.009946049884845484,0.024796195298485625
0.52,0.0024699424504922283,0.0021555057939187756,0.0017043994401354956,0.019144990365588126,0.010053854523461131,0.02496091657026775
0.521,0.0024748278935543253,0.0021544118002909483,0.0016992740999180636,0.019410818356361548,0.010163072373053812,0.025122900081030058
0.522,0.002479635763443376,0.0021534885017591146,0.0016942239891626447,0.01967640619968887,0.01027364708669896,0.02528195639592474
0.523,0.002484350640398737,0.0021527428546711754,0.001689254958195071,0.019941443095635218,0.01038551955917093,0.025437897307200648
0.524,0.002488957446431441,0.002152181645838826,0.0016843730327423007,0.020205617540056932,0.010498627940571329,0.025590536092973615
0.525,0.002493441465266379,0.0021518114779972837,0.0016795844125108233,0.020468617790662197,0.010612907653722308,0.025739687772308985
0.526,0.00249778836166733,0.0021516387557056235,0.0016748954695243524,0.020730132336666842,0.01072829141536136,0.025885169356463768
0.527,0.0025019842001024984,0.0021516696717189276,0.0016703127462117022,0.020989850371147457,0.010844709261172357,0.026026800096248914
0.528,0.0025060154627145,0.0021519101938611658,0.001665842953235314,0.02124746226515166,0.01096208857467913,0.02616440172551055
0.529,0.0025098690665634397,0.0021523660524246056,0.0016614929670500944,0.0215026600425683,0.011080354120014463,0.026297798700706913
0.53,0.002513532380115579,0.0021530427281179205,0.0016572698271802777,0.021755137854704648,0.011199428078562664,0.026426818436510714
0.531,0.002516993238954272,0.002153945440581781,0.0016531807331989989,0.022004592453473987,0.011319230089463847,0.026551291537315905
0.532,0.002520239960694636,0.0021550791374875633,0.0016492330413919601,0.02225072366206602,0.011439677293966753,0.026671052024475693
0.533,0.0025232613590874344,0.002156448484231437,0.001645434261083793,0.022493234841947075,0.011560684383625376,0.02678593755904213
0.534,0.00252604675729932,0.0021580578542326153,0.00164179205060371,0.022731833355013924,0.011682163652346948,0.026895789659715143
0.535,0.0025285860003561333,0.0021599113198413713,0.0016383142128657759,0.022966231019708468,0.01180402505230842,0.027000453915645192
0.536,0.0025308694667347366,0.002162012643859916,0.0016350086905387812,0.023196144559898338,0.011926176253764695,0.027099780193680173
0.537,0.002532888079087333,0.002164365271677509,0.0016318835607819883,0.023421296045346436,0.01204852270877635,0.0271936228396204
0.538,0.002534633314080512,0.0021669723240203133,0.0016289470295268922,0.023641413322631463,0.012170967718886374,0.02728184087305694
0.539,0.0025360972113301133,0.002169836590316442,0.0016262074252918549,0.0238562304354343,0.01229341250676861,0.027364298175412284
0.54,0.0025372723814134105,0.0021729605226774498,0.0016236731925247628,0.02406548803316087,0.012415756291852998,0.027440863670851547
0.541,0.002538152012942381,0.0021763462304991575,0.0016213528844760984,0.024268933766923174,0.012537896369909566,0.02751141149976239
0.542,0.0025387298786850045,0.0021799954756865636,0.0016192551556087468,0.024466322671948267,0.01265972819655467,0.02757582118450573
0.543,0.0025390003407233935,0.002183909668508298,0.001617388753551507,0.024657417535533025,0.012781145474635125,0.027633977787122475
0.544,0.0025389583546362123,0.0021880898640851327,0.0016157625106025086,0.02484198924970708,0.012902040245446314,0.02768577205864927
0.545,0.0025385994726887075,0.0021925367595149133,0.0016143853347882463,0.025019817147803502,0.01302230298374251,0.027731100579658097
0.546,0.00253791984600925,0.0021972506916339445,0.0016132662004845213,0.025190689324168968,0.013141822696497038,0.027769865891609846
0.547,0.0025369162257297038,0.0022022316354132388,0.0016124141386075737,0.02535440293628035,0.013260487025368334,0.027801976618616848
0.548,0.0025355859630700472,0.0022074792029880552,0.0016118382263868541,0.025510764488580515,0.013378182352828028,0.027827347579248176
0.549,0.0025339270083543173,0.0022129926433204217,0.0016115475767338426,0.02565959009740141,0.01349479391190894,0.02784589988808405
0.55,0.0025319379089513232,0.0022187708424950213,0.0016115513272223169,0.02580070573639205,0.013610205899531344,0.02785756104683499
0.551,0.0025296178061370825,0.0022248123246472267,0.001611858628693941,0.025933947461904555,0.013724301593361883,0.027862265024973517
0.552,0.0025269664308779924,0.002231115253519292,0.0016124786335001,0.02605916161783811,0.0138369634721482,0.027859952329938754
0.553,0.00252398409853778,0.002237677434639996,0.001613420483388244,0.02617620501954104,0.013948073339453512,0.027850570067030907
0.554,0.0025206717025186894,0.002244496318126107,0.0016146932970399687,0.02628494511652903,0.014057512450695465,0.02783407198911997
0.555,0.0025170307068568968,0.0022515690021087014,0.0016163061572689922,0.02638526013394294,0.014165161643382567,0.02781041853628667
0.556,0.0025130631378015543,0.002258892236789989,0.0016182680978895885,0.026477039192790878,0.014270901470445477,0.027779576865514244
0.557,0.002508771574414888,0.00226646242913556,0.001620588090268979,0.026560182409096487,0.01437461233657217,0.027741520870550866
0.558,0.002504159138238022,0.0022742756482042373,0.0016232750295799075,0.02663460097214689,0.014476174637460594,0.02769623119205728
0.559,0.0024992294820751055,0.002282327631114699,0.0016263377207717752,0.026700217202131334,0.0145754689018924,0.027643695218149807
0.56,0.00249398677795641,0.002290613789645353,0.001629784864280161,0.026756964587590637,0.01467237593651423,0.027583907075461614
0.561,0.0024884357043466077,0.0022991292174616056,0.0016336250414950497,0.026804787803236984,0.014766776973203027,0.027516867610882123
0.562,0.0024825814326651483,0.0023078686979625743,0.001637866700007224,0.026843642708817637,0.014858553818891777,0.02744258436418731
0.563,0.002476429613182066,0.002316826712737251,0.0016425181386499244,0.026873496329753003,0.014947589007730756,0.027361071531820595
0.564,0.002469986360347414,0.0023259974506180305,0.0016475874923495327,0.026894326820275136,0.015033765955443895,0.027272349922103752
0.565,0.0024632582376080585,0.002335374817317804,0.0016530827167953559,0.026906123409744263,0.015116969115709143,0.027176446902150132
0.566,0.0024562522417621276,0.0023449524456359908,0.0016590115729349102,0.026908886332749144,0.01519708413835546,0.027073396336739185
0.567,0.0024489757868975835,0.0023547237062187835,0.0016653816112977074,0.026902626743513586,0.015273998029136942,0.02696323851940822
0.568,0.002441436687956063,0.0023646817188588535,0.0016722001561482232,0.026887366615047023,0.01534759931081823,0.02684602009601634
0.569,0.0024336431439571982,0.0023748193643193236,0.001679474289468591,0.02686313862340824,0.015417778185279365,0.026721793981020026
0.57,0.002425603720913987,0.0023851292966659307,0.0016872108347738707,0.026829986017425093,0.015484426696316058,0.026590619266662643
0.571,0.0024173273344676744,0.0023956039560899985,0.001695416340766139,0.02678796247425018,0.015547438892771374,0.026452561125226984
0.572,0.002408823232270424,0.002406235582203436,0.0017040970648362897,0.026737131941227083,0.015606710991589222,0.026307690704442725
0.573,0.0024001009761447927,0.0024170162277860193,0.0017132589564238239,0.026677568464658637,0.015662141540332977,0.026156085016100155
0.574,0.002391170424050164,0.0024279377729650945,0.0017229076402460726,0.026609356006162963,0.01571363157866849,0.025997826817921846
0.575,0.0023820417118880525,0.0024389919398078537,0.0017330483994097714,0.026532588247345692,0.015761084798278875,0.025833004488790296
0.576,0.0023727252351804762,0.0024501703073051607,0.0017436861584194175,0.026447368383504262,0.015804407700669397,0.025661711897500997
0.577,0.002363231630657403,0.0024614643267228528,0.0017548254660986343,0.026353808907030398,0.015843509752338822,0.02548404826528321
0.578,0.0023535717577895005,0.0024728653372917313,0.001766470478443486,0.02625203138111778,0.01587830353683557,0.02530011802240123
0.579,0.002343756680300786,0.0024843645822021673,0.001778624941429374,0.026142166204335408,0.01590870490327442,0.025110030659224545
0.58,0.0023337976476928432,0.0024959532248642973,0.001791292173794142,0.026024352366595095,0.015934633110947956,0.024913900572227435
0.581,0.0023237060768088536,0.0025076223653904104,0.0018044750498192785,0.025898737197007995,0.015956010969708022,0.024711846905428086
0.582,0.0023134935334629004,0.0025193630572520067,0.0018181759821307042,0.025765476104074248,0.015972764975809347,0.024503993387799922
0.583,0.0023031717141585224,0.002531166324059863,0.0018323969045430895,0.025624732308578712,0.015984825442918203,0.024290468167199597
0.584,0.0022927524279200604,0.0025430231764112673,0.0018471392549786359,0.025476676569485917,0.01599212662802761,0.024071403641370594
0.585,0.0022822475782599953,0.0025549246287441853,0.0018624039585020931,0.025321486903053223,0.015994606852107227,0.02384693628659264
0.586,0.002271669145304477,0.0025668617161331373,0.001878191410525165,0.025159348295321765,0.01599220861543333,0.023617206484541735
0.587,0.0022610291680972066,0.0025788255109561414,0.0018945014602417241,0.024990452408103284,0.0159848787076508,0.02338235834789633
0.588,0.002250339727098662,0.002590807139357086,0.0019113333943593664,0.02481499727855457,0.015972568312682768,0.023142539545175846
0.589,0.0022396129268936974,0.0026027977974235387,0.0019286859211943318,0.0246331870124199,0.015955233108621774,0.022897901125239817
0.59,0.0022288608791166263,0.00261478876699536,0.0019465571551973424,0.024445231471034407,0.015932833362724035,0.02264859734182612
0.591,0.002218095685599411,0.0026267714310138955,0.001964944601977515,0.024251345952225323,0.015905334021606165,0.02239478547847595
0.592,0.002207329421745317,0.002638737288316555,0.001983845143889381,0.0240517508653184,0.015872704796728983,0.022136625674179237
0.593,0.002196574120127083,0.0026506779677803625,0.002003255026244294,0.02384667140053904,0.015834920245252484,0.02187428075006349
0.594,0.002185841754305325,0.0026625852417227563,0.0020231698442031774,0.023636337193176208,0.01579195984635299,0.02160791603742837
0.595,0.002175144222860372,0.0026744510384779886,0.0020435845304037324,0.023420981982935213,0.015743808073094875,0.02133769920739237
0.596,0.002164493333631011,0.0026862674540807517,0.002064493343372132,0.023200843268927376,0.015690454459936786,0.02106380010236801
0.597,0.002153900788158996,0.0026980267630028394,0.002085889856766594,0.022976161960732152,0.015631893665924844,0.020786390569521886
0.598,0.0021433781663491545,0.0027097214279024617,0.0021077669494974733,0.02274718202594445,0.01556812553358592,0.020505644296307426
0.599,0.002132936911368343,0.0027213441083587917,0.0021301167967660043,0.022514150134618768,0.01549915514348606,0.020221736648085437
0.6,0.002122588314817252,0.0027328876685763716,0.0021529308620625814,0.022277315301059294,0.015424992864366691,0.0199348445077755
0.601,0.002112343502213735,0.0027443451840559584,0.0021761998901657564,0.022036928523480225,0.015345654398717646,0.019645146117414015
0.602,0.002102213418825456,0.002755709947241176,0.002199913901183539,0.021793242422161865,0.01526116082359235,0.019352820921433096
0.603,0.0020922088158860947,0.0027669754721631494,0.002224062185678168,0.021546510876837115,0.015171538626417548,0.019058049411420693
0.604,0.002082340237225629,0.0027781354981151925,0.00224863330091504,0.021296988664135732,0.0150768197354988,0.018761012972079362
0.605,0.0020726180063425194,0.002789183992394612,0.002273615068276812,0.02104493109596669,0.014977041544875445,0.018461893728073425
0.606,0.00206305221394367,0.002800115152150029,0.002298994571884118,0.020790593659722252,0.014872246933136447,0.018160874391445897
0.607,0.0020536527059763035,0.002810923405373068,0.0023247581584638364,0.02053423166115132,0.014762484275776021,0.01785813810929859
0.608,0.002044429072173987,0.0028216034110737243,0.002350891438503969,0.02027609987069494,0.01464780745064995,0.017553868311452673
0.609,0.002035390635136578,0.0028321500586778315,0.0023773792887311364,0.020016452174021274,0.014528275836094279,0.01724824855783177
0.61,0.0020265464399604576,0.002842558466681708,0.002404205855942082,0.01975554122744885,0.014403954301293105,0.01694146238533695
0.611,0.0020179052444318614,0.002852823980594187,0.002431354562214825,0.0194936181189067,0.014274913188535169,0.0166336931540317
0.612,0.0020094755097938535,0.0028629421701921853,0.0024588081115194138,0.019230932035047957,0.014141228287069296,0.0163251238925401
0.613,0.0020012653920968046,0.0028729088261151806,0.0024865484977440264,0.018967729935107824,0.014002980798334516,0.016015937142667254
0.614,0.001993282734142144,0.0028827199558273645,0.0025145570141496877,0.018704256232076263,0.013860257292396339,0.01570631480334146
0.615,0.0019855350580284506,0.0028923717789826964,0.002542814264265181,0.01844075248173788,0.01371314965548645,0.01539643797403073
0.616,0.001978029558307594,0.002901860722235619,0.0025713001742316832,0.018177457080114128,0.013561755028639122,0.015086486797807844
0.617,0.001970773095757274,0.0029111834135469557,0.002599994006603615,0.01791460496982282,0.013406175737536968,0.014776640304245008
0.618,0.0019637721917751005,0.002920336676038637,0.0026288743756088992,0.017652427355845064,0.013246519213792912,0.014467076252321883
0.619,0.001957033023397832,0.002929317521451489,0.00265791926386965,0.01739115143116378,0.013082897907976758,0.014157970973534951
0.62,0.0019505614189471363,0.002938123143258112,0.0026871060405841995,0.017131000112717155,0.01291542919473299,0.013849499215407658
0.621,0.0019443628543002146,0.002946750909479723,0.0027164114811727524,0.016872191788095705,0.012744235270338269,0.01354183398562181
0.622,0.0019384424497803081,0.0029551983552530336,0.002745811788390173,0.016614940073395375,0.012569443043029939,0.013235146397021618
0.623,0.0019328049676590158,0.0029634631751911476,0.0027752826149092984,0.01635945358261392,0.012391184016421123,0.012929605513782258
0.624,0.0019274548102599645,0.0029715432155811208,0.0028047990873767796,0.01610593570894667,0.012209594166320682,0.012625378199080916
0.625,0.0019223960186518076,0.0029794364664605688,0.0028343358319412844,0.01585458441831118,0.012024813811302321,0.012322628964652445
0.626,0.001917632271917679,0.0029871410536163575,0.002863867001250943,0.015605592055414647,0.011836987477404673,0.012021519822647672
0.627,0.001913166886988201,0.0029946552305483718,0.0028933663029126603,0.015359145162670961,0.011646263757375935,0.01172221014023566
0.628,0.0019090028190257727,0.0030019773704389446,0.0029228070294001138,0.015115424312267324,0.011452795164895101,0.011424856497396529
0.629,0.0019051426623480458,0.0030091059581640604,0.0029521620893905014,0.014874603951668288,0.01125673798420927,0.011129612548337144
0.63,0.0019015886518770903,0.0030160395823779856,0.0029814040405033533,0.014636852262823593,0.011058252115625408,0.01083662888693183
0.631,0.0018983426650979282,0.003022776927699925,0.0030105051234080604,0.01440233103531375,0.010857500917283745,0.010546052916552019
0.632,0.0018954062245071352,0.003029316767029619,0.0030394372972594617,0.014171195553624661,0.010654651043619822,0.010258028724608709
0.633,0.0018927805005301175,0.0030356579540176286,0.003068172276412247,0.01394359449869318,0.010449872280899152,0.009972696962093667
0.634,0.0018904663148842644,0.0030417994157144797,0.0030966815683556733,0.013719669863813538,0.010243337380187314,0.009690194728370464
0.635,0.0018884641443634726,0.003047740145420558,0.0031249365128012134,0.013499556884943349,0.010035221888097563,0.009410655461434984
0.636,0.0018867741250169913,0.003053479195756336,0.0031529083218483404,0.01328338398539845,0.009825703975634174,0.009134208833837908
0.637,0.0018853960566928192,0.0030590156719709737,0.003180568121148764,0.013071272734877806,0.009614964265421862,0.00886098065443882
0.638,0.0018843294079141923,0.0030643487255069043,0.003207886991987456,0.012863337822712156,0.009403185657582207,0.008591092776141333
0.639,0.0018835733210573996,0.003069477547838016,0.0032348360141991987,0.012659687045182761,0.009190553154491096,0.008324663009739077
0.64,0.0018831266177996742,0.003074401364598239,0.003261386309841726,0.012460421306710226,0.008977253684629549,0.008061805043982276
0.641,0.0018829878048070574,0.0030791194300146506,0.003287509087550412,0.01226563463466891,0.008763475925724778,0.007802628371953568
0.642,0.0018831550796343088,0.0030836310216552335,0.003313175687504233,0.012075414207542165,0.008549410127367518,0.007547238223819725
0.643,0.0018836263368120772,0.003087935435497935,0.0033383576269367743,0.011889840396100295,0.008335247933285075,0.007295735506004942
0.644,0.0018843991741001075,0.0030920319813258984,0.0033630266461283503,0.011708986817258455,0.008121182203449245,0.0070482167468135775
0.645,0.0018854708988884138,0.0030959199784540113,0.0033871547548154405,0.011532920400253216,0.007907406836206533,0.006804774048515998
0.646,0.001886838534729938,0.0030995987517943246,0.003410714278951718,0.011361701464758164,0.007694116590631901,0.0065654950458987355
0.647,0.001888498827987977,0.003103067628272104,0.0034336779077516243,0.011195383810534821,0.007481506909317941,0.006330462871267645
0.648,0.0018904482545813602,0.003106325933609083,0.0034560187409438084,0.011034014818184572,0.007269773741810964,0.0060997561258794636
0.649,0.0018926830268126114,0.0031093729894940553,0.003477710336158355,0.010877635560532957,0.0070591133688926964,0.005873448857763632
0.65,0.0018951991002698174,0.003112208111161925,0.003498726756367842,0.010726280924142446,0.006849722227885971,0.005651610545882965
0.651,0.0018979921807997118,0.003114830605400578,0.0035190426172972975,0.010579979740416199,0.0066417967391403454,0.0054343060905681605
0.652,0.0019010577315546034,0.0031172397690013014,0.003538633134712616,0.010438754925724266,0.006435533133831291,0.0052215958101459875
0.653,0.0019043909801175762,0.0031194348876634787,0.003557474171491954,0.010302623629956677,0.006231127283184348,0.0050135354436648275
0.654,0.001907986925709632,0.0031214152353579386,0.0035755422843805553,0.010171597392883721,0.006028774529214312,0.004810176159605766
0.655,0.0019118403464814897,0.003123180074146305,0.0035928147703258736,0.01004568230767988,0.005828669517052922,0.004611564570453724
0.656,0.0019159458068936045,0.0031247286544471625,0.003609269712286184,0.009924879190940934,0.005631006028930338,0.004417742752989986
0.657,0.0019202976651903666,0.0031260602157345326,0.003624886024401401,0.009809183758492632,0.0054359768198749825,0.00422874827415413
0.658,0.0019248900809763236,0.0031271739876497953,0.0036396434964093287,0.009698586806255497,0.005243773455197373,0.004044614222310318
0.659,0.0019297170229018886,0.0031280691915043734,0.003653522837184708,0.009593074395397935,0.005054586149822437,0.0038653692437417247
0.66,0.0019347722764634448,0.003128745042147187,0.0036665057172735405,0.009492628040984198,0.00486860360953127,0.0036910375841874388
0.661,0.001940049451919614,0.0031292007501680743,0.0036785748102920192,0.00939722490331211,0.004686012874168342,0.003521639135227965
0.662,0.0019455419923232755,0.0031294355244061017,0.0036897138330573005,0.009306837981145597,0.0045069991628634235,0.003357189485319008
0.663,0.0019512431816680249,0.0031294485747301957,0.003699907584315537,0.009221436306079677,0.00433174572130865,0.0031976999752696355
0.664,0.001957146153147025,0.0031292391150593833,0.0037091419819326593,0.009140985137318142,0.004160433671120807,0.003043177757959994
0.665,0.00196324389752032,0.00312880636659111,0.0037174040984183365,0.009065446156177593,0.003993241861308035,0.0028936258620936386
0.666,0.001969529271583535,0.003128149561207325,0.0037246821946650722,0.008994777659647105,0.0038303467218497454,0.0027490432597794216
0.667,0.0019759950067279653,0.0031272679450281746,0.0037309657518015747,0.00892893475234069,0.003671922119389325,0.002609424937737683
0.668,0.0019826337175817346,0.0031261607820836286,0.0037362455010789748,0.008867869536200165,0.0035181392150308542,0.0024747619719250403
0.669,0.0019894379107251972,0.003124827358076762,0.0037405134517247236,0.008811531297354793,0.0033691663242230974,0.002345041605371678
0.67,0.001996399993479638,0.0031232669842189147,0.003743762916706925,0.008759866689621684,0.003225168778706185,0.002220247329026243
0.671,0.002003512282773227,0.003121479001123349,0.003745988536350891,0.008712819914222129,0.0030863087904891323,0.0021003589654077343
0.672,0.0020107670140900235,0.003119462782746794,0.00374718629974466,0.008670332895371089,0.0029527453178197533,0.001985352754871223
0.673,0.002018156350507571,0.003117217740366876,0.0037473535638670543,0.008632345451452469,0.0028246339331020743,0.00187520144430282
0.674,0.0020256723918290614,0.0031147433265811537,0.003746489070373185,0.008598795461517752,0.0027021266927106744,0.0017698743780655086
0.675,0.0020333071838185574,0.003112039039314214,0.0037445929599775572,0.008569619026850342,0.002585372008648814,0.0016693375910190895
0.676,0.0020410527275511307,0.0031091044258244674,0.003741666784383167,0.008544750627337089,0.002474514522001273,0.0015735539034358018
0.677,0.0020489009888917976,0.003105939086710379,0.0037377135157167364,0.008524123272392126,0.0023696949781456724,0.0014824830176314687
0.678,0.0020568439081166774,0.0031025426799246554,0.003732737553445284,0.008507668646188881,0.0022710501037064477,0.0013960816161323563
0.679,0.0020648734096870625,0.003098914924812486,0.0037267447287656547,0.008495317246974613,0.0021787124852584144,0.0013143034612002771
0.68,0.0020729814121826042,0.0030950556061942473,0.0037197423064739363,0.008486998520268345,0.002092810449806324,0.0012370994955416823
0.681,0.002081159838393932,0.0030909645785124266,0.003711738984334225,0.008482640985776429,0.0020134679470811116,0.0011644179440295642
0.682,0.0020894006255680717,0.0030866417700577,0.003702744889975349,0.008482172357897536,0.0019408044337046566,0.0010962044162695702
0.683,0.0020976957357924366,0.003082087187283231,0.003692771575349475,0.008485519659728675,0.0018749347592853613,0.0010324020098436788
0.684,0.0021060371664953594,0.0030773009192121034,0.003681832008788969,0.008492609330525916,0.0018159690545177256,0.0009729514140658786
0.685,0.002114416961033637,0.003072283141941254,0.0036699405647000467,0.008503367326616622,0.0017640126213702653,0.0009177910140849175
0.686,0.0021228272193308142,0.003067034123245316,0.0036571130109358412,0.008517719215799444,0.0017191658254562625,0.0008668569951709997
0.687,0.0021312601085240255,0.0030615542272839505,0.0036433664938972134,0.008535590265297396,0.0016815239906889758,0.000820083447028225
0.688,0.0021397078735717876,0.0030558439194155397,0.003628719521414667,0.008556905523344017,0.001651177296326464,0.0007774024679829044
0.689,0.002148162847770007,0.0030499037711186686,0.0036131919434672305,0.008581589894488088,0.0016282106765122466,0.0007387442689077861
0.69,0.0021566174631190978,0.0030437344650208155,0.0035968049307940984,0.008609568208712545,0.001612703722417996,0.0007040372767509892
0.691,0.002165064260482727,0.0030373368000307867,0.0035795809514536574,0.008640765284490282,0.0016047305870942662,0.000673208237544664
0.692,0.0021734958994800535,0.0030307116965674293,0.003561543745384172,0.008675105985941763,0.0016043598931364653,0.0006461823187728441
0.693,0.0021819051680593477,0.0030238602018718766,0.0035427182970223245,0.008712515274303256,0.0016116546432774744,0.0006228832109826336
0.694,0.0021902849917105546,0.0030167834953845995,0.0035231308060401784,0.00875291825394828,0.0016266721340249392,0.0006032332285291608
0.695,0.0021986284422845707,0.0030094828941628323,0.003502808656266536,0.008796240213226813,0.00164946387246762,0.0005871534093523937
0.696,0.002206928746394575,0.0030019598583098323,0.003481780382862604,0.008842406660399515,0.0016800754963797583,0.0005745636136911774
0.697,0.0022151792933785904,0.0029942159963855324,0.0034600756378230105,0.008891343354948697,0.0017185466977562536,0.000565382621645303
0.698,0.002223373642804184,0.0029862530707671356,0.003437725153872451,0.008942976334544415,0.001764911149915826,0.0005595282295001192
0.699,0.0022315055314982356,0.0029780730029258483,0.003414760706827491,0.008997231937933947,0.0018191964383136553,0.000556917344731202
0.7,0.002239568880088273,0.002969677878580935,0.0033912150764938208,0.009054036824008226,0.0018814239952080981,0.0005574660796098477
0.701,0.002247557799046683,0.002961069952685491,0.0033671220061719095,0.009113317987283199,0.0019516090383277169,0.0005610898433345876
0.702,0.002255466594234218,0.0029522516541920425,0.0033425161608481193,0.009175002770023928,0.0020297605136851836,0.0005677034326204236
0.703,0.002263289771943302,0.002943225590542364,0.003317433084151901,0.009239018871240266,0.0021158810426836826,0.0005772211206860714
0.704,0.002271022043443602,0.0029339945518262064,0.003291909154159845,0.009305294352796093,0.002209966873659956,0.000589556744588998
0.705,0.002278658329032623,0.0029245615145579336,0.003265981538122773,0.009373757642893069,0.0023120078380073844,0.0006046237908668424
0.706,0.002286193761594239,0.002914929645027082,0.0032396881461844496,0.009444337537203737,0.0024219873110231283,0.000622335479450773
0.707,0.002293623689668659,0.002905102302187412,0.003213067584153415,0.009516963197929842,0.002539882177625031,0.0006426048458213693
0.708,0.002300943680037284,0.00289508304005937,0.0031861591053854534,0.009591564151050724,0.0026656628030867426,0.0006653448213815413
0.709,0.0023081495198243214,0.0028848756096323575,0.0031590025618334927,0.009668070282012152,0.0027992930089447373,0.0006904683120245944
0.71,0.0023152372181139114,0.0028744839602630316,0.0031316383543231125,0.00974641183009614,0.0029407300542394726,0.0007178882748790521
0.711,0.0023222030070771233,0.0028639122405717575,0.003104107382114622,0.009826519381708957,0.0030899246222626116,0.0007475177932149767
0.712,0.0023290433425980145,0.002853164798842644,0.003076450991816686,0.009908323862825006,0.003246820812989086,0.0007792701494988428
0.713,0.002335754904383586,0.002842246182936857,0.003048710925720895,0.009991756530826006,0.0034113561413756785,0.0008130588965856594
0.714,0.002342334595541201,0.0028311611397351653,0.0030209292696301614,0.010076748965976613,0.0035834615417097908,0.0008487979270388506
0.715,0.002348779541610221,0.0028199146141312664,0.0029931484002547913,0.01016323306277536,0.0037630613781969536,0.0008864015405711866
0.716,0.002355087089041669,0.002808511747599161,0.002965410932247664,0.01025114102140924,0.0039500734619839,0.0009257845096035051
0.717,0.002361254803128812,0.002796957876354889,0.0029377596649444765,0.010340405339521746,0.00414440907482222,0.0009668621429407649
0.718,0.0023672804654016506,0.0027852585291275127,0.0029102375288681567,0.01043095880448239,0.004345972999582226,0.0010095503475660566
0.719,0.0023731620705091374,0.0027734194245494265,0.0028828875320501134,0.010522734486324535,0.0045546635578265805,0.0010537656885526887
0.72,0.0023788978226231966,0.002761446468173982,0.002855752706215817,0.010615665731497368,0.00477037265464873,0.001099425447093262
0.721,0.0023844861314057477,0.002749345749128733,0.002828876052878424,0.01070968615755609,0.0049929858309726615,0.001146447676643325
0.722,0.002389925607582383,0.0027371235364138076,0.002802300489381656,0.01080472964889311,0.005222382323499144,0.0011947512571757208
0.723,0.002395215058164735,0.0027247862748562305,0.0027760687949312897,0.010900730353593522,0.0054584351324712,0.0012442559475398208
0.724,0.00240035348135928,0.002712340580732492,0.0027502235566531585,0.010997622681479824,0.005701011097419441,0.0012948824359176401
0.725,0.0024053400611941667,0.002699793237073467,0.002724807115716246,0.01109534130339296,0.00594997098103692,0.0013465523883669083
0.726,0.002410174161888576,0.0026871511886676037,0.0026998615135640637,0.01119382115173973,0.006205169561323145,0.0013991884954403426
0.727,0.0024148553219831294,0.0026744215367791235,0.0026754284383048847,0.011292997422319448,0.006466455732127029,0.0014527145168712788
0.728,0.0024193832482478353,0.002661611533596761,0.0026515491713176033,0.011392805577423603,0.00673367261220673,0.0015070553243181353
0.729,0.00242375780938768,0.002648728576425983,0.002628264534131849,0.011493181350181863,0.007006657662908994,0.0015621369421626413
0.73,0.0024279790295736866,0.0026357802016355077,0.0026056148356385536,0.011594060750110905,0.007285242814551225,0.0016178865863583742
0.731,0.0024320470818358433,0.0026227740783690066,0.0025836398196825167,0.011695380069813363,0.007569254601566745,0.0016742327013272026
0.732,0.0024359622813609986,0.002609718002034993,0.0025623786130838286,0.011797075892772351,0.007858514306448823,0.0017311049949026139
0.733,0.002439725078742178,0.002596619887590368,0.0025418696741318285,0.011899085102187276,0.008152838112503521,0.0017884344713214632
0.734,0.002443336053225364,0.002583487762634105,0.002522150741593871,0.01200134489079223,0.008452037265396147,0.0018461534622706722
0.735,0.002446795905996763,0.0025703297603271794,0.0025032587842811643,0.012103792771584817,0.00875591824345104,0.0019041956560038012
0.736,0.0024501054535499963,0.002557154112155409,0.0024852299512144144,0.01220636658937465,0.009064282936638806,0.001962496124552958
0.737,0.0024532656211698543,0.002543969140555056,0.0024680995224321965,0.012309004533046312,0.009376928834158216,0.0020209913490704277
0.738,0.0024562774365668835,0.002530783251425357,0.0024519018604851144,0.012411645148430987,0.009693649220491925,0.002079619243338658
0.739,0.002459142023694047,0.002517604926554187,0.0024366703626607263,0.012514227351695408,0.010014233379786778,0.002138319175487473
0.74,0.002461860596772505,0.0025044427159811268,0.002422437413989654,0.0126166904431804,0.010338466808381396,0.0021970319879572736
0.741,0.002464434454548431,0.002491305230317559,0.002409234341091505,0.01271897412164469,0.010666131435275512,0.0022557000157500976
0.742,0.002466864974796989,0.002478201133038699,0.002397091366926772,0.012821018498885279,0.01099700585030569,0.0023142671030178513
0.743,0.002469153609083644,0.002465139132759742,0.002386037566524377,0.012922764114707668,0.011330865539760582,0.0023726786180461815
0.744,0.0024713018777885076,0.002452127975507173,0.0023761008237532587,0.013024151952204145,0.011667483129136885,0.0024308814666991066
0.745,0.002473311365398572,0.0024391764369948296,0.0023673077892026628,0.013125123453268085,0.012006628632705359,0.0024888241043912796
0.746,0.0024751837160753836,0.002426293314911406,0.002359683839232028,0.013225620534234487,0.012348069709523976,0.002546456546652518
0.747,0.0024769206295086627,0.002413487421222291,0.0023532530362485567,0.013325585601501705,0.01269157192550064,0.0026037303783446974
0.748,0.0024785238570668466,0.0024007675744848905,0.0023480380902686036,0.013424961566965191,0.013036899021072084,0.0026605987615849463
0.749,0.0024799951982537225,0.002388142592173876,0.0023440603218179475,0.013523691863084079,0.01338381318402926,0.0027170164424215274
0.75,0.002481336497478199,0.002375621283012387,0.0023413396262261426,0.013621720457404035,0.013732075326984066,0.0027729397563007463
0.751,0.0024825496411427965,0.0023632124393069822,0.002339894439371117,0.013718991866370345,0.014081445368937502,0.0028283266323560034
0.752,0.0024836365550549044,0.002350924829286187,0.0023397417049309493,0.013815451168279631,0.014431682520374996,0.0028831365965448818
0.753,0.0024845992021621274,0.0023387671894422417,0.002340896843199272,0.01391104401523548,0.014782545571279313,0.0029373307736571814
0.754,0.002485439580608424,0.002326748216872743,0.002343373721519256,0.014005716643993995,0.015133793181412874,0.0029908718882155046
0.755,0.002486159722101371,0.002314876561614689,0.002347184626389736,0.01409941588561094,0.015485184172178671,0.0030437242642892357
0.756,0.0024867616905735477,0.0023031608189599912,0.00235234023729639,0.0141920891738314,0.01583647781932579,0.0030958538242416866
0.757,0.0024872475811141283,0.0022916095217396923,0.0023588496023202836,0.014283684552194097,0.016187434145729106,0.003147228086428221
0.758,0.002487619519141626,0.002280231132563784,0.0023667201155744004,0.014374150679856786,0.016537814213447743,0.0031978161618599695
0.759,0.0024878796597859044,0.002269034036004159,0.002375957496515967,0.014463436836187364,0.01688738041425397,0.0032475887498427617
0.76,0.0024880301874458852,0.0022580265307102533,0.002386565771179312,0.014551492924203902,0.017235896757822184,0.003296518132593549
0.761,0.0024880733154875674,0.002247216821450386,0.00239854725537183,0.014638269472978072,0.017583129156770478,0.0033445781688273024
0.762,0.0024880112860447777,0.002236613011075435,0.0024119025398747014,0.014723717639131712,0.017928845707744633,0.003391744286297547
0.763,0.002487846369883472,0.002226223092403494,0.002426630477689911,0.014807789207552515,0.018272816967720398,0.003437993473265491
0.764,0.002487580866290439,0.002216054940024006,0.00244272817337459,0.014890436591436771,0.01861481622468192,0.0034833042688674166
0.765,0.0024872171029489344,0.0022061163020190818,0.0024601909745024025,0.01497161283174654,0.018954619761828672,0.0035276567523471205
0.766,0.0024867574357659503,0.0021964147916004434,0.002479012465289976,0.015051271596157866,0.019292007114481487,0.003571032531118532
0.767,0.002486204248617484,0.00218695787866403,0.002499184462424377,0.015129367177580389,0.019626761318899472,0.003613414727623327
0.768,0.0024855599529788825,0.0021777528812706483,0.002520697013124536,0.015205854492343863,0.019958669152273758,0.003654787964951045
0.769,0.0024848269874071494,0.002168806957068556,0.002543538395464864,0.015280689078168269,0.020287521363234102,0.00369513835119626
0.77,0.0024840078168419802,0.0021601270946799717,0.0025676951209838406,0.015353827092059303,0.020613112892313257,0.0037344534625375955
0.771,0.0024831049316943994,0.0021517201050760743,0.0025931519395954927,0.015425225308299107,0.020935243081976095,0.0037727223250331805
0.772,0.00248212084669755,0.00214359261296411,0.002619891846818685,0.015494841116730265,0.021253715876003478,0.0038099353951336064
0.773,0.0024810580995030256,0.002135751048207167,0.002647896093337961,0.015562632521554981,0.021568340008172905,0.0038460845389163088
0.774,0.0024799192490171686,0.0021282016372932465,0.0026771441969095848,0.01562855814088739,0.02187892918028306,0.003881163010047782
0.775,0.0024787068734838237,0.002120950394866254,0.002707613956626483,0.01569257720730502,0.022185302229647815,0.003915165426485766
0.776,0.0024774235683307005,0.0021140031153285724,0.002739281469555719,0.01575464956964901,0.022487283286245854,0.003948087745943246
0.777,0.0024760719438028174,0.0021073653645241317,0.0027721211497617406,0.015814735696325827,0.022784701919743675,0.003979927240146547
0.778,0.002474654622407652,0.002101042471511752,0.002806105749727591,0.0158727966803661,0.023077393276611232,0.004010682467926223
0.779,0.002473174236195461,0.002095039520438692,0.002841206384184676,0.015928794246494116,0.023365198207536714,0.004040353247179192
0.78,0.0024716334238984723,0.002089361342522116,0.002877392556360605,0.01598269076044878,0.023647963385329478,0.004068940625734803
0.781,0.002470034827955705,0.0020840125081420377,0.0029146321866553395,0.01603444924077118,0.02392554141347402,0.004096446851150187
0.782,0.0024683810914540236,0.0020789973190453227,0.0029528916437583873,0.016084033373236915,0.0241977909254602,0.0041228753394549665
0.783,0.0024666748550179547,0.0020743198006587873,0.0029921357782223944,0.016131407528065776,0.024464576674974915,0.004148230642863342
0.784,0.002464918753679782,0.0020699836945121354,0.0030323279585089194,0.01617653677999182,0.02472576961701254,0.004172518416472803
0.785,0.0024631154137588684,0.0020659924507783526,0.003073430109519582,0.016219386931226806,0.024981246979955938,0.0041957453839737
0.786,0.002461267449777305,0.002062349220947699,0.0031154027536206956,0.01625992453730131,0.0252308923286988,0.004217919302402977
0.787,0.002459377461438987,0.002059056850657785,0.0031582050541628377,0.016298116935721363,0.02547459561891543,0.0042390489259862985
0.788,0.0024574480307002324,0.0020561178727040524,0.0032017948614890624,0.016333932277334984,0.02571225324262773,0.004259143969121542
0.789,0.0024554817189598476,0.0020535345002529494,0.00324612876141657,0.016367339560263598,0.025943768065265733,0.004278215068560852
0.79,0.00245348106439354,0.0020513086202766117,0.0032911621261666663,0.016398308666218935,0.026169049454462842,0.004296273744848588
0.791,0.0024514485794521054,0.0020494417872255638,0.003336849167706729,0.01642681039899593,0.026388013300854902,0.004313332363071095
0.792,0.002449386748535918,0.002047935216956348,0.0033831429934560874,0.016452816524903432,0.026600582031147492,0.0043294040929730505
0.793,0.002447298025850817,0.0020467897809334904,0.0034299956642960794,0.016476299814864762,0.026806684613676805,0.004344502868495205
0.794,0.002445184833443262,0.0020460060007279628,0.0034773582548141995,0.01649723408788904,0.027006256556632958,0.004358643346790384
0.795,0.0024430495594064162,0.002045584042835897,0.003525180915704091,0.016515594255585152,0.027199239899065617,0.004371840866778638
0.796,0.0024408945562443577,0.002045523713841696,0.0035734129382372494,0.016531356367367408,0.027385583194770843,0.004384111407306397
0.797,0.0024387221393798136,0.002045824455949916,0.003622002820718403,0.01654449765598821,0.027565241489173112,0.004395471544976175
0.798,0.0024365345857925063,0.002046485342911778,0.0036708983368338582,0.01655499658303,0.02773817628935332,0.004405938411713569
0.799,0.002434334132780338,0.002047505076375155,0.003720046605798904,0.01656283288399541,0.027904355527404046,0.004415529652141371
0.8,0.0024321229768424317,0.0020488819826897813,0.003769394164204805,0.016567987612647217,0.028063753517295276,0.004424263380839113
0.801,0.002429903272688754,0.002050614010200062,0.003818887039457524,0.016570443184263713,0.02821635090540424,0.004432158139577762
0.802,0.0024276771323836223,0.00205269872705599,0.003868470824690051,0.016570183417488574,0.028362134614814166,0.004439232854626797
0.803,0.002425446624629141,0.0020551333195692645,0.003918090755019235,0.016567193574468852,0.028501097783429928,0.004445506794230966
0.804,0.0024232137741904405,0.0020579145911375765,0.003967691785007573,0.01656146039899285,0.028633239695897632,0.0044509995263492825
0.805,0.002420980561459141,0.0020610389617558393,0.004017218667181713,0.016552972152361914,0.028758565709251057,0.004455730876744889
0.806,0.002418748922146517,0.002064502468130004,0.0040666160314531226,0.01654171864675309,0.02887708717213988,0.0044597208875142525
0.807,0.0024165207470948314,0.0020683007644078464,0.004115828465282145,0.016527691275846832,0.02898882133742643,0.004462989776146764
0.808,0.0024142978821948347,0.002072429123540987,0.004164800594424227,0.016510883042499456,0.0290937912678784,0.004465557895209333
0.809,0.0024120821283986904,0.0020768824392919816,0.004213477164096613,0.016491288583233083,0.02919202573464309,0.0044674456927533334
0.81,0.0024098752418187427,0.002081655228898895,0.004261803120405032,0.016468904189307656,0.029283559108164044,0.004468673673541705
0.811,0.0024076789339023815,0.0020867416364073383,0.004309723691871283,0.016443727824149545,0.029368431241185,0.004469262361190675
0.812,0.0024054948716715915,0.0020921354366770285,0.004357184470901956,0.016415759136954155,0.029446687343472795,0.00446923226131301
0.813,0.0024033246780131683,0.0020978300400673285,0.004404131495034194,0.016384999472355867,0.0295183778478936,0.004468603825739719
0.814,0.002401169932002937,0.002103818497804246,0.004450511327787297,0.01635145187615339,0.029583558267521716,0.004467397417886753
0.815,0.002399032169245307,0.002110093508029345,0.004496271138942543,0.016315121097173698,0.029642289043567395,0.004465633279323746
0.816,0.002396912882208547,0.002116647422528538,0.004541358784071997,0.01627601358544001,0.029694635384066977,0.004463331497594393
0.817,0.002394813520536658,0.0021234722541362255,0.004585722883141469,0.016234137486874637,0.029740667093454753,0.0044605119753341445
0.818,0.0023927354913205134,0.002130559684808483,0.004629312898019045,0.01618950263481724,0.029780458393315536,0.004457194400730142
0.819,0.002390680159312826,0.002137901074357962,0.004672079208723275,0.01614212053867442,0.029814087734797233,0.004453398219368061
0.82,0.002388648847072304,0.0021454874698426524,0.004713973188241661,0.01609200437003675,0.02984163760332306,0.004449142607508077
0.821,0.0023866428350224024,0.0021533096156009257,0.004754947275742519,0.01603916894660278,0.029863194316346608,0.004444446446827269
0.822,0.0023846633614116237,0.002161357963926392,0.004794955047995285,0.015983630714236134,0.029878847814925644,0.004439328300659585
0.823,0.002382711622167384,0.002169622686377033,0.004833951288808779,0.015925407727452913,0.02988869144987329,0.004433806391758065
0.824,0.002380788770643566,0.002178093685712431,0.004871892056295945,0.015864519628597355,0.029892821763211515,0.004427898581597244
0.825,0.002378895917269797,0.002186760608450749,0.004908734747778515,0.015800987625923475,0.02989133826562125,0.004421622351225952
0.826,0.0023770341291155087,0.002195612858034472,0.004944438162153946,0.01573483447076827,0.02988434321056233,0.004414994783671361
0.827,0.002375204429383839,0.002204639608591241,0.004978962559554416,0.015666084433984335,0.02987194136572948,0.004408032547883946
0.828,0.0023734077968504334,0.0022138298192730783,0.00501226971812959,0.015594763281797052,0.02985423978251974,0.004400751884201061
0.829,0.0023716451652608835,0.002223172249154401,0.005044322987782967,0.015520898251260514,0.029831347564204184,0.004393168591297064
0.83,0.0023699174226989445,0.0022326554726673597,0.005075087340689565,0.01544451802549795,0.02980337563350515,0.004385298014583837
0.831,0.0023682254109374185,0.0022422678955523676,0.005104529418423494,0.015365652708915852,0.029770436500273258,0.004377155036027141
0.832,0.002366569924784775,0.002251997771301506,0.0051326175755314115,0.015284333802568275,0.029732644029951332,0.004368754065346527
0.833,0.00236495171144166,0.0022618332180726224,0.005159321919408504,0.015200594179819123,0.02969011321351731,0.004360109032564643
0.834,0.002363371469880844,0.0022717622360528085,0.005184614346370948,0.015114468062411212,0.029642959939605012,0.004351233381865427
0.835,0.0023618298502622558,0.0022817727252513603,0.0052084685738668385,0.0150259909970086,0.029591300769492488,0.004342140066713108
0.836,0.002360327453392551,0.0022918525037030233,0.0052308601688128105,0.014935199832241732,0.029535252715617542,0.004332841546177858
0.837,0.0023588648302361923,0.0023019893260611737,0.0052517665720738125,0.014842132696259279,0.02947493302423588,0.004323349782410254
0.838,0.002357442481481515,0.00231217090255753,0.005271167119116323,0.014746828974776239,0.029410458962785217,0.004313676239206328
0.839,0.0023560608571607964,0.002322384918300518,0.005289043056868886,0.014649329289598998,0.02934194761246298,0.004303831881609529
0.84,0.002354720356319276,0.002332619052879277,0.005305377556830684,0.01454967547760027,0.029269515666472512,0.004293827176505502
0.841,0.002353421326726022,0.0023428610002357952,0.005320155724487314,0.01444791057011436,0.02919327923435566,0.004283672094177291
0.842,0.002352164064619456,0.0023530984887651105,0.005333364605122628,0.01434407877273514,0.0291133536528239,0.004273376110799036
0.843,0.002350948814480667,0.0023633193016028187,0.005344993186148849,0.014238225445527998,0.029029853303527902,0.004262948211854697
0.844,0.002349775768827559,0.002373511297058131,0.005355032396104206,0.01413039708370345,0.028942891438238097,0.004252396896475525
0.845,0.002348645068023685,0.002383662429147804,0.005363475100481658,0.014020641298829356,0.028852580011909372,0.0042417301826959825
0.846,0.0023475568000986286,0.0023937607681821208,0.005370316094553007,0.013909006800673787,0.028759029524062098,0.004230955613630583
0.847,0.002346511000580742,0.002403794521350744,0.005375552093343972,0.013795543379772525,0.02866234886884793,0.004220080264572649
0.848,0.0023455076523452314,0.0024137520532549733,0.005379181718904193,0.01368030189080553,0.028562645194101188,0.0042091107510105865
0.849,0.002344546685479294,0.002423621906333582,0.005381205485007486,0.013563334236843945,0.028460023769614727,0.0041980532375500345
0.85,0.0023436279771617825,0.0024333928211306907,0.0053816257794133395,0.013444693354495612,0.028354587864825486,0.004186913447722801
0.851,0.0023427513515499004,0.00244305375635385,0.005380446843816805,0.013324433199940897,0.02824643863604746,0.004175696674656995
0.852,0.0023419165796628033,0.0024525939086671236,0.005377674751606126,0.013202608735817405,0.0281356750233449,0.0041644077925781274
0.853,0.002341123379254518,0.0024620027321579706,0.005373317383535198,0.013079275918882615,0.028022393657095683,0.004153051269109306
0.854,0.0023403714146763,0.002471269957409977,0.005367384401404129,0.012954491688354884,0.027906688774256564,0.004141631178339345
0.855,0.002339660296737701,0.0024803856101073677,0.005359887219829157,0.012828313954806379,0.027788652144315522,0.004130151214628719
0.856,0.00233898958258113,0.0024893400290927864,0.005350838976174721,0.012700801589459347,0.02766837300490782,0.0041186147071229735
0.857,0.0023383587755843975,0.0024981238837988697,0.005340254498714516,0.012572014413721097,0.027545938007079305,0.004107024634941309
0.858,0.0023377673253011685,0.0025067281909776566,0.005328150273082451,0.012442013188782875,0.0274214311701896,0.004095383643005903
0.859,0.002337214627443193,0.002515144330658339,0.005314544407066631,0.012310859605105069,0.027294933846452794,0.004083694058476825
0.86,0.0023367000239026916,0.0025233640612704997,0.005299456593790302,0.012178616271622344,0.027166524695121617,0.004071957907758098
0.861,0.0023362228028097954,0.0025313795338761757,0.005282908073315284,0.012045346704530434,0.027036279666338515,0.004060176934040371
0.862,0.002335782198619268,0.0025391833054616664,0.0052649215926977395,0.011911115315555137,0.026904271994693647,0.004048352615342433
0.863,0.002335377392222344,0.002546768351249815,0.005245521364522776,0.011775987399640298,0.02677057220253052,0.0040364861830082446
0.864,0.0023350075110817286,0.0025541280760035113,0.00522473302394072,0.01164002912201351,0.026635248113014147,0.004024578640611587
0.865,0.00233467162938932,0.0025612563242981153,0.0052025835842225655,0.011503307504592985,0.026498364872926426,0.00401263078322013
0.866,0.0023343687682473658,0.0025681473897429348,0.0051791013908472775,0.011365890411694224,0.026359984985085374,0.004000643216974025
0.867,0.0023340978958754995,0.002574796023131822,0.005154316074133047,0.011227846534992852,0.026220168350206883,0.003988616378936831
0.868,0.0023338579278484014,0.002581197439504344,0.005128258500428622,0.011089245377706522,0.02607897231794359,0.003976550557174325
0.869,0.0023336477273705777,0.0025873473241051583,0.005100960721885563,0.010950157237971441,0.025936451746750258,0.003964445911009272
0.87,0.0023334661055949696,0.0025932418372408084,0.005072455924834422,0.010810653191400255,0.025792659072145566,0.003952302491390023
0.871,0.002333311821990573,0.002598877618047364,0.00504277837678903,0.010670805072812033,0.025647644382872148,0.003940120261299825
0.872,0.002333183584761675,0.0026042517871940627,0.005011963372108473,0.010530685457122211,0.025501455504396576,0.003927899116123679
0.873,0.0023330800513190635,0.002609361948554133,0.004980047176359082,0.010390367639376752,0.025354138089129445,0.0039156389038819475
0.874,0.0023329998288028923,0.0026142061898757544,0.00494706696943687,0.010249925613915889,0.025205735712676855,0.0039033394452356205
0.875,0.0023329414746572907,0.0026187830824874326,0.004913060787529026,0.010109434052657367,0.025056289975361808,0.0038910005531659995
0.876,0.002332903497256882,0.0026230916800754267,0.004878067464006706,0.009968968282494358,0.024905840608186323,0.0038786220522301325
0.877,0.0023328843565849104,0.0026271315165759083,0.004842126569348135,0.009828604261810599,0.02475442558235852,0.0038662037972930757
0.878,0.002332882464963341,0.0026309026032295918,0.004805278350192822,0.009688418556127296,0.024602081221504177,0.0038537456916392953
0.879,0.002332896187837748,0.0026344054248498136,0.004767563667629344,0.009548488312912056,0.024448842315727966,0.003841247704366652
0.88,0.0023329238446225245,0.0026376409353552704,0.004729023934825076,0.009408891235596399,0.02429474223677258,0.003828709886966109
0.881,0.0023329637096135207,0.0026406105526160244,0.00468970105411714,0.009269705556861503,0.02413981305362711,0.0038161323889905393
0.882,0.0023330140129765265,0.002643316152657395,0.004649637353697651,0.009131010011259004,0.02398408564804477,0.0038035154727194403
0.883,0.0023330729418219757,0.0026457600632623385,0.004608875524040624,0.008992883807235721,0.023827589829523207,0.003790859526733017
0.884,0.0023331386413780134,0.002647945057008563,0.004567458554229357,0.00885540659863264,0.023670354449356352,0.003778165078317842
0.885,0.0023332092162750197,0.0026498743437710793,0.00452542966834843,0.008718658455732964,0.023512407513388196,0.003765432804638065
0.886,0.0023332827319559038,0.002651551562714311,0.004482832262102446,0.008582719835941312,0.023353776293115882,0.003752663542621335
0.887,0.002333357216228796,0.002652980773791668,0.0044397098398154785,0.008447671554183352,0.023194487434824086,0.003739858297524316
0.888,0.0023334306609811097,0.002654166448765589,0.004396105951953272,0.008313594753119158,0.02303456706647516,0.0037270182501556773
0.889,0.002333501024075213,0.002655113461757956,0.004352064133297271,0.008180570873262459,0.022874040902106468,0.003714144762745767
0.89,0.0023335662314467012,0.002655827079340119,0.004307627841888691,0.008048681623092678,0.02271293434348798,0.0037012393834658123
0.891,0.0023336241794276336,0.0026563129501739943,0.004262840398855011,0.007918008949238099,0.022551272578781673,0.0036883038496165568
0.892,0.0023336727373190346,0.0026565770942197095,0.004217744929231029,0.007788635006797092,0.022389080677939426,0.0036753400895226523
0.893,0.0023337097502379896,0.0026566258915291254,0.004172384303890249,0.007660642129850811,0.022226383684594744,0.0036623502231788937
0.894,0.0023337330422639434,0.002656466070646972,0.0041268010827067835,0.007534112802206494,0.022063206704244505,0.003649336561695431
0.895,0.002333740419907072,0.002656104696641984,0.004081037459071101,0.007409129628395823,0.021899574988565627,0.0036363016055839404
0.896,0.002333729675919529,0.0026555491587889326,0.004035135205883565,0.007285775304937176,0.02173551401575047,0.003623248041919374
0.897,0.002333698593467477,0.002654807157918489,0.003989135623147182,0.00716413259185548,0.02157104956676239,0.003610178740405357
0.898,0.00233364495067744,0.002653886693446085,0.003943079487274804,0.0070442842844418525,0.021406207797403216,0.0035970967483689464
0.899,0.002333566525565085,0.0026527960500851515,0.003897007002216268,0.006926313185229915,0.021241015306054996,0.0035840052847157006
0.9,0.0023334611013490656,0.002651543784246276,0.0038509577524987425,0.006810302076165999,0.02107549919692423,0.0035709077328887596
0.901,0.0023333264721476597,0.0026501387101228115,0.0038049706582608893,0.006696333690952148,0.02090968713858915,0.003557807632891121
0.902,0.002333160449051383,0.002648589885464794,0.0037590839323494414,0.006584490687538955,0.020743607417626358,0.003544708672442289
0.903,0.0023329608665602223,0.0026469065970450597,0.003713335039535447,0.006474855620737687,0.020577288987067892,0.003531614677345424
0.904,0.0023327255893696905,0.00264509834582196,0.00366776065789623,0.006367510914909942,0.020410761509409753,0.0035185296011387276
