time,RGLTMED,RRF,RADDLONG,RST,RTA,RGM,LGLTMED,LRF,LADDLONG,LST,LTA,LGM
0.0,0.005975190391271446,0.001895408155720814,0.010769521330000866,0.011037299705351122,0.10424315190066118,0.002151181713078853,0.05102242698064569,0.027884665955248657,0.0010033951604725526,0.0035952560376080692,0.0002779956312743544,0.02882465311590437
0.001,0.004639818750141934,0.002454546403049347,0.011376510186956918,0.011529563719363561,0.11368334593396652,0.001004586351345104,0.05924222808114565,0.025950891205139274,0.0019349015379564597,0.0029347066705754463,0.006859235233071327,0.02479628008123271
0.002,0.0033036119902232074,0.003015021969792221,0.01198460108632697,0.012014875740051407,0.12312093923611105,0.000138837310199308,0.06741988516365094,0.024026243760577444,0.0028635492103077113,0.0022635094227484846,0.013394971055028598,0.020655831146869794
0.003,0.0019673023315866824,0.0035765180706466234,0.012593367369785129,0.012492784972066216,0.13254922356499402,0.0012783920961439562,0.07554938919025539,0.02211176161064599,0.003788738587233476,0.0015817804457289233,0.019880419597382328,0.016403208734577186
0.004,0.0006316228644908552,0.004138716927798531,0.013202380155643487,0.01296284958405734,0.14196146638033696,0.0024133854830771886,0.08362475950163412,0.02020846774874122,0.00470987499265523,0.0008896411265486394,0.02631084396473777,0.012038402738677243
0.005,0.0007026932985351104,0.004701300210382307,0.013811209004885425,0.013424637710222554,0.15135092016862486,0.0035431306009982826,0.09164005238472527,0.01831736884483924,0.005626369628816772,0.0001872179573342511,0.03268156115402751,0.007561492121439649
0.006,0.002034913865548835,0.005263949472672945,0.01441942259175746,0.013877728451617742,0.1607108317892733,0.004666947222679579,0.099589369582867,0.016439453960267917,0.006537640526967252,0.0005253575886593516,0.03898794923169839,0.0029726464524709537
0.007,0.003364308201359964,0.0058263465897797516,0.015026589376874898,0.014321712874798708,0.17003445181580265,0.005784162738291025,0.10746686672570313,0.01457569330811046,0.007443113481609486,0.0012479491734104658,0.04522545437775254,0.0017278726107331581
0.008,0.004690148155473313,0.006388174189597663,0.015632278280833214,0.014756195005439844,0.1793150438468798,0.006894113112771835,0.11526676165688701,0.01272703706202351,0.008342222965426327,0.0019804157018211335,0.051389597776024726,0.0065397099041617736
0.009,0.006011708880315518,0.006949116079956805,0.016236059356451896,0.015180792814706795,0.18854589376266584,0.00799614382363017,0.1229833426382692,0.010894414215864073,0.009234413022204188,0.0027226114198329937,0.05747598233160391,0.011462415403819275
0.01,0.007328269638377255,0.007508857669928383,0.01683750445778602,0.015595139196173289,0.1977203189021626,0.009089610777095993,0.1306109764097575,0.009078731496239672,0.010119138135146626,0.0034743860022466316,0.06348029919786397,0.016495442940830825
0.011,0.008639114596914898,0.008067086384301337,0.01743618790414503,0.015998882931204696,0.20683167713743975,0.010173881200721146,0.13814411608462246,0.007280872329709574,0.010995864068096814,0.0042355846296929685,0.06939833409683546,0.02163814898875945
0.012,0.009943533608899614,0.008623492070417935,0.01803168713747772,0.016391689640778674,0.21587337582134966,0.011248334510792067,0.1455773088608265,0.005501695866106755,0.011864068677257197,0.005006048054388062,0.07522597341793408,0.0268897915270352
0.013,0.011240822979009897,0.009177767396526003,0.018623583371595136,0.016773242721830443,0.2248388805864365,0.012312363153020433,0.1529052035300074,0.0037420360591549576,0.012723242691220342,0.005785612654470693,0.08095921008120681,0.03224952898467963
0.014,0.012530286213506202,0.009729608240951015,0.019211462231872485,0.01714324426631229,0.2337217239743132,0.013365373415120257,0.1601225577668958,0.0020027008053452706,0.0135728904572705,0.006574110476842356,0.08659414915226692,0.03771641926891569
0.015,0.013811234753017331,0.010278714071399903,0.01979491438412549,0.01750141596122415,0.2425155138768096,0.014406786210040611,0.1672242451832507,0.00028447114192013597,0.014412530652251797,0.007371369268528263,0.09212701319733865,0.04328941888347797
0.016,0.015082988687331197,0.010824788313871238,0.02037353615152148,0.017847499967896082,0.25121394177215467,0.015436037828699171,0.17420526213172086,0.0014118994953559456,0.015241696956631167,0.008177212496730842,0.09755414736816585,0.04896738214171562
0.017,0.01634487745145627,0.011367538710566184,0.020946930118340028,0.018181259778887966,0.2598107907413108,0.016452580661178877,0.1810607342462254,0.0030856859541107968,0.0160599386906728,0.008991459357773285,0.10287202420791235,0.054749060479798016
0.018,0.017596240502289393,0.011906677666374705,0.021514705719517226,0.018502481050821987,0.26829994325080336,0.017455883885445698,0.18778592270642233,0.0047361919866494295,0.016866821411808022,0.009813924775323852,0.10807724817037012,0.06063310187543011
0.019,0.018836427975358234,0.012441922583450822,0.022076479814931715,0.018810972411567574,0.27667538868969205,0.018445434122671363,0.19437623021507147,0.006362750810544246,0.01766192747256247,0.010644419388306911,0.113166559845719,0.06661805037762848
0.02,0.02006480132117587,0.012972996183438376,0.022631877247407797,0.0191065662401854,0.2849312306497646,0.019420736058383948,0.20082720667836387,0.007964725608693832,0.01844485653841745,0.011482749529010792,0.11813683988685615,0.07270234575303251
0.021,0.021280733920829912,0.013499626816902359,0.02318053138358908,0.019389119418078457,0.2930616939397475,0.020381313028604096,0.20713455458095248,0.009541509969262509,0.019215226065186622,0.012328717191963394,0.12298511263157769,0.07888432325424499
0.022,0.02248361168052388,0.014021548759544599,0.023722084636818654,0.01965851404980013,0.30106113132595247,0.021326707570335116,0.21329413404886685,0.011092528266082534,0.019972671735521554,0.013182119994122584,0.12770854941726972,0.08516221351550958
0.023,0.023672833604760486,0.014538502494763208,0.02425618897136594,0.019914658151976045,0.30892402999323776,0.022256481935668964,0.21930196759518117,0.012617235980295951,0.02071684785430089,0.01404275112705213,0.13230447158650244,0.0915341425809894
0.024,0.024847812347947508,0.015050234982130298,0.024782506387348927,0.02015748630881778,0.3166450177213087,0.02317021856892629,0.22515424454522634,0.014115119964256323,0.02144742770273374,0.014910399301736581,0.13677035318342054,0.09799813207072608
0.025,0.026007974744172324,0.015556499911460147,0.025300709385761348,0.02038696029267438,0.3242188687721203,0.024067520546240145,0.23084732514018355,0.015585698648762733,0.02216410385107539,0.015784848686764476,0.14110382334209645,0.10455209948917893
0.026,0.02715276231491064,0.01605705794206195,0.025810481413023133,0.020603069648190957,0.33164050948431123,0.024948011977031944,0.2363777443196094,0.01702852219493498,0.022866588430048525,0.01666587884071126,0.14530266836878172,0.11119385868111105
0.027,0.028281631754524,0.016551676926968698,0.026311517284491742,0.020805832238646158,0.3389050235703222,0.025811338366867418,0.24174221518504982,0.01844317259204334,0.023554613361080813,0.017553264639514277,0.14936483352089247,0.1179211204393463
0.028,0.029394055393359323,0.017040132121847008,0.026803523586387504,0.02099529475315077,0.34600765711165377,0.02665716694121058,0.24693763214825976,0.0198292637026973,0.02422793054563444,0.01844677619977538,0.15328842448669197,0.12473149326883641
0.029,0.03048952163829645,0.017522206378435896,0.027286219055601024,0.021171533173509192,0.3529438232478997,0.02748518692963081,0.25196107376874766,0.02118644125686514,0.024886312013922846,0.019346178798928984,0.1570717085710044,0.13162248431131454
0.03,0.03156753539065677,0.01799769032238433,0.02775933493685089,0.02133465319955212,0.35970910655580635,0.028295109810078704,0.256809805286369,0.022514382796209046,0.025529550033342507,0.020251232793222,0.16071311559391493,0.13859150043472698
0.031,0.03262761844127109,0.01846638251539848,0.028222615316718366,0.021484790631909192,0.3662992671155832,0.029086669512777105,0.26148128085531835,0.023812797570305327,0.02615745717694743,0.021161693534467247,0.16421123851070887,0.14563584949139619
0.032,0.033669309842632986,0.018928089601703037,0.02867581743401217,0.021622111711203644,0.37271024426248406,0.029859622583314822,0.26597314548613504,0.025081426386277868,0.026769866352328975,0.0220773112864192,0.16756483376228926,0.152752741748679
0.033,0.034692166257879145,0.019382626438870898,0.02911871196606157,0.021746813412700693,0.37893816002220954,0.03061374830442853,0.2702832367022504,0.026320041413462104,0.027366630791393752,0.02299783114168371,0.1707728213657626,0.15993929149560854
0.034,0.035695762286395136,0.01982981621320785,0.02955108329053425,0.021859123695526284,0.3849793222289815,0.03134884877603014,0.274409585917139,0.02752844594464288,0.027947624001512773,0.023922992939882433,0.1738342847549727,0.16719251882872824
0.035,0.03667969076572058,0.020269490539954974,0.029972729722409712,0.021959301705691943,0.3908302273254508,0.032064748953053994,0.2783504195377,0.02870647411547689,0.028512739678749583,0.024852531187899044,0.1767484703806939,0.1745093516200767
0.036,0.03764356304944801,0.020701489548658202,0.030383463725763175,0.02204763793226809,0.3964875628442604,0.03276129664085269,0.2821041597990061,0.02985399058363233,0.029061891583872818,0.025786174982951743,0.17951478707990962,0.18188662767004127
0.037,0.03858700926080485,0.021125661954071916,0.03078311209998661,0.02212445431626516,0.4019482095727754,0.03343836244811763,0.28566942533530326,0.03097089016924772,0.029595013382056282,0.026723647939241042,0.182132805223558,0.1893210970476826
0.038,0.03950967852167956,0.02154186511299386,0.031171516140116887,0.022190104311812186,0.4072092434050663,0.03409583969752605,0.28904503149178185,0.03205709745822941,0.03011205844719991,0.027664668119004174,0.18460225565187952,0.19680942462099502
0.039,0.040411239156873155,0.021949965067480676,0.03154853177095416,0.02224497289931159,0.4122679368881132,0.03473364429459224,0.29222999038114467,0.03311256636991393,0.030612999631896273,0.028608947968772842,0.18692302840632274,0.20434819277952193
0.04,0.041291378873499575,0.02234983657486953,0.03191402965475554,0.022289476550296755,0.41712176047180155,0.035351714555534874,0.2952235106884816,0.03413727969066447,0.03109782900406283,0.02955619426160488,0.18909517126669134,0.21193390435136766
0.041,0.04214980491547235,0.022741363125133366,0.032267895272293526,0.022324063143720905,0.4217683834738548,0.03595001099526288,0.2980249972271467,0.03513124857491688,0.03156655755128197,0.030506108046069177,0.19111888810175798,0.2195629857165197
0.042,0.042986244193140365,0.023124436946006098,0.03261002897720106,0.022349211833455927,0.4262056747714868,0.0365285160767458,0.30063405024763507,0.03609451201524449,0.032019214853864615,0.031458384602639396,0.1929945370411827,0.2272317901178323
0.043,0.0438004433882442,0.023498958996372582,0.032940346023611844,0.02236543286677327,0.4304317032316143,0.03708723392326626,0.30305046450067785,0.03702713628295698,0.03245584872769697,0.03241271340819987,0.1947226284761042,0.23493660117077123
0.044,0.044592169034375455,0.02386483894840113,0.03325877656727606,0.022373267353568,0.4344447378908697,0.03762618999507401,0.30527422805514054,0.03792921434077465,0.03287652483794676,0.033368778109262684,0.19630382289533485,0.24267363657250846
0.045,0.04536120757321466,0.024221995158913306,0.033565265640405656,0.022373286986078676,0.43824324789570723,0.03814543073200033,0.3073055208708877,0.03880086522909095,0.03328132628477117,0.034326256504579926,0.1977389285635547,0.25043905201049016
0.046,0.04610736538682138,0.024570354630494697,0.033859773100743853,0.022366093708875042,0.4418259022120553,0.03864502316354575,0.30914471312656894,0.039642233427405874,0.033670353162265666,0.035284820537789106,0.19902889904737386,0.25822894527000545
0.047,0.04683046880622826,0.02490985296288508,0.0341422735553367,0.02235231933886828,0.4451915691131227,0.039125054487999585,0.31079236330239535,0.04045348819250391,0.03404372209200842,0.03624413630068451,0.20017483059453015,0.26603936053958055
0.048,0.04753036409660603,0.025240434295121048,0.034412756259638196,0.022332625135180948,0.4483393154534802,0.0395856316221414,0.31224921601810984,0.04123482287509817,0.03440156573262219,0.03720386404770702,0.201177959371086,0.2738662929121217
0.049,0.048206917419262155,0.02556205123901303,0.0346712249924809,0.022307701318731266,0.45126840573694477,0.04002688072323476,0.3135161996268733,0.04198645421660753,0.03474403226692738,0.038163658222242935,0.20203965856098424,0.281705693078915
0.05,0.04886001477074444,0.02587466480438858,0.03491769790755019,0.022278266541464385,0.4539783009852793,0.04044894668509567,0.3145944235665612,0.042708621627866636,0.035071284868240606,0.03912316749534601,0.20276143533207755,0.28955347221268884
0.051,0.04948956189932309,0.02617824431662726,0.03515220736187891,0.02224506730519371,0.45646865741446246,0.040851992610128465,0.3154851754709434,0.04340158645153344,0.03538350114749891,0.040082034817477546,0.2033449276726639,0.2974055070350653
0.052,0.05009548419925292,0.02647276732689315,0.03537479972199385,0.022208877330208664,0.4587393249254379,0.041236199259324084,0.31618991804442054,0.04406563120996134,0.03568087258277691,0.04103989748400703,0.203791901102495,0.3052576450628799
0.053,0.05067772658326277,0.026758219515516365,0.03558553514830274,0.02217049687387894,0.46079034541652,0.04160176448213977,0.3167102857052094,0.04470105884024856,0.03596360393288146,0.04199638721504184,0.20410424526227436,0.31310571002685805
0.054,0.051236253333749725,0.027034594588925258,0.03578448735842244,0.02213075199972409,0.46262195092494585,0.041948902628200786,0.3170480810030424,0.045308191918077806,0.036231912636640926,0.042951130250241894,0.20428397038559334,0.32094550745516953
0.055,0.05177104793333815,0.02730189417051788,0.03597174337019985,0.0220904937976258,0.4642345616049037,0.042277843942654124,0.31720527081849687,0.04588737187190466,0.03648602819954978,0.043903747459100785,0.20433320365703472,0.3287728304132557
0.056,0.05228211287542636,0.027560127685776543,0.03614740322533906,0.022050597556044618,0.46562878354890785,0.04258883394692819,0.31718398235155504,0.046438958188862324,0.036726191569348865,0.04485385446720175,0.2042541854600947,0.3365834653903467
0.057,0.05276946945534411,0.027809312241968524,0.036311579694598896,0.022011961887213594,0.46680540645900953,0.04288213280663283,0.31698649890768094,0.04696332761377645,0.036952654502134585,0.045801061798869225,0.2040492655186704,0.34437319832190677
0.058,0.05323315754280245,0.0280494725026304,0.03646439796557645,0.021975507806429016,0.467765401174012,0.043158014688245344,0.31661525549018743,0.04746087334248377,0.03716567892044496,0.046744975036633114,0.20372089893601117,0.352137820736367
0.059,0.053673235336222064,0.02828064055706621,0.036605995314088445,0.021942177766458452,0.4685099170591095,0.04341676710624714,0.31607283420818405,0.04793200421075937,0.0373655362648334,0.04768519499784848,0.20327164213526547,0.359873136013524
0.06,0.054089779099691114,0.02850285578498083,0.036736520760131466,0.021912934648273038,0.4690402792644464,0.04365869026231334,0.31536195950960494,0.048377143880070285,0.037552506840332525,0.048621317928809436,0.20270414870613923,0.36757496574110066
0.061,0.05448288288332114,0.028716164716374688,0.03685613470930024,0.021888760709185117,0.4693579858592299,0.043884096378176744,0.31448549324891767,0.04879673002133413,0.037726879159190735,0.04955293571661778,0.20202116516277524,0.37523915615516545
0.062,0.054852658227877986,0.02892062088688412,0.036965008580588744,0.02187065648963931,0.46946470484799036,0.044093309023677085,0.31344642959949914,0.04919121349789848,0.03788894928123403,0.05047963611907963,0.20122552661898893,0.3828615846491718
0.063,0.05519923385459068,0.029116284688663074,0.03706332442142505,0.021859639679872752,0.46936227107580414,0.04428666244147811,0.3122478898211846,0.049561057548850145,0.03803902015315107,0.051401003012962604,0.20032015238834386,0.3904381663355668
0.064,0.05552275534104149,0.029303223217038255,0.03715127451094065,0.021856743947670884,0.4690526830295388,0.0444645008699569,0.3108931168939394,0.04990673697380716,0.03817740094803009,0.05231661666083452,0.19930804151792766,0.3979648606428112
0.065,0.05582338478399219,0.029481510113063762,0.037229060952403324,0.02186301772853005,0.46853809954245323,0.04462717786558957,0.3093854700292188,0.05022873732032862,0.03830440640636976,0.053226053996892016,0.19819226826592287,0.4054376779299858
0.066,0.05610130044993049,0.029651225402211732,0.03729689525582081,0.02187952297948145,0.46782083640936306,0.044775055626222665,0.30772841907122284,0.05052755407511687,0.03842035617983167,0.05412888893197874,0.19697597753380416,0.41285268610020237
0.067,0.05635669641397457,0.029812455329348817,0.037354997911707266,0.02190733389788121,0.46690336291954887,0.0449085043165066,0.3059255388010655,0.05080369186010617,0.03852557417898273,0.05502469267815114,0.1956623802643419,0.4202060171935218
0.068,0.05658978218768065,0.029965292190228608,0.03740359795693302,0.02194753560646683,0.4657882983143743,0.04502790139676762,0.30398050315751346,0.05105766363457504,0.038620387926253885,0.055913034092998325,0.19425474881663699,0.4274938739392825
0.069,0.056800782336174846,0.03010983415970402,0.03744293253363653,0.02200122280599757,0.4644784081764071,0.04513363095652951,0.3018970793883422,0.051289989904257316,0.038705127915385086,0.05679348004398279,0.192756412329075,0.43471253624730727
0.07,0.05698993608493692,0.03024618511680724,0.0374732464420777,0.02206949839688556,0.4629766007565181,0.04522608305388765,0.29967912214645565,0.05150119793836991,0.03878012697856124,0.05766559579295401,0.19117075208086562,0.4418583676172758
0.071,0.05715749691665069,0.030374454466840617,0.03749479168830103,0.022153472071280624,0.4612859232450058,0.04530565306183179,0.29733056754488857,0.05169182099541041,0.03884571966247653,0.05852894540095658,0.18950119686245542,0.4489278214459033
0.072,0.05730373215835756,0.030494756960656316,0.037507827027448405,0.02225425887718486,0.4594095579920874,0.04537274102248978,0.2948554271844713,0.051862397558456175,0.038902241614462416,0.05938309215328931,0.187751218364599,0.455917447212334
0.073,0.0574289225591239,0.030607212511233425,0.037512617503516296,0.022372977756172904,0.4573508186821925,0.04542775101023468,0.29225778216740533,0.052013470580728936,0.03895002897981016,0.06022759900474812,0.185924326595452,0.4628238965229435
0.074,0.057533361858332875,0.03071194600776088,0.037509433986388604,0.022510750056445834,0.45511314646538464,0.04547109050447115,0.2895417771094332,0.05214558674208483,0.03898941781131921,0.06106202904485729,0.18402406533441115,0.46964392899802054
0.075,0.057617356344615914,0.030809087127438853,0.03749855270697225,0.02266869802291839,0.4527001060481118,0.045503169772848163,0.28671161416258756,0.05225929571719616,0.03902074349202853,0.06188594598278735,0.1820540076309713,0.476374417984241
0.076,0.05768122440541308,0.03089877014522667,0.03748025479121049,0.02284794326616518,0.45011538174447036,0.045524401265705255,0.28377154705979235,0.052355149456006694,0.039044340172070945,0.06269891465157759,0.18001775135636466,0.4830123560786215
0.077,0.05772529606719253,0.030981133741786748,0.03745482579374242,0.023049605212001445,0.4473627734882606,0.0455351990224972,0.28072587519169206,0.0524337014771181,0.03906054022043628,0.06350050153120072,0.17791891481514366,0.4895548604512591
0.078,0.057749912526288055,0.0310563208099004,0.03742255523188156,0.023274799533569753,0.44444619280540054,0.045535978090956566,0.27757893772527364,0.052495506174552765,0.03906967369244215,0.06429027528990768,0.1757611324234057,0.4959991779556289
0.079,0.05775542567040014,0.031124478259565908,0.03738373612061899,0.02352463656766252,0.4413696587455499,0.0455271539597325,0.27433510777310316,0.05254111813836154,0.039072067813641705,0.06506780734328989,0.17354805045967606,0.5023426900161794
0.08,0.05774219759074747,0.03118575682202215,0.037338664509246014,0.023800219717099596,0.4381372937713424,0.045509142005167556,0.2709987866212996,0.05257109148941759,0.039068046480784956,0.06583267243048224,0.17128332289390316,0.5085829172838182
0.081,0.0577106000849407,0.031240310852795283,0.037287639020297206,0.024102643840886645,0.4347533196032363,0.04548235695283584,0.26757439802390093,0.05258597922879553,0.03905792978047394,0.06658444920673118,0.16897060729955063,0.5147175240504872
0.082,0.057661014150448164,0.03128829813388809,0.037230960391354616,0.024432993633936476,0.43122205301805616,0.04544721235436972,0.2640663825707218,0.05258633260223081,0.03904203352600671,0.0673227208515663,0.1666135608532473,0.5207443224145847
0.083,0.05759382946848402,0.03132987967523551,0.0371689310204294,0.0247923419981247,0.42754790159957345,0.04540412008007241,0.26047919213559406,0.05257270048013267,0.03902066881279002,0.06804707569162032,0.16421583642606272,0.5266612761896275
0.084,0.05750944387805431,0.03136521951548077,0.03710185451545695,0.025181748406481432,0.4237353594401611,0.04535348982772434,0.25681728441153373,0.052545628753849535,0.038994141592650695,0.06875710783704223,0.1617810787699139,0.5324665045492211
0.085,0.057408262839835134,0.03139448452223054,0.03703003524856568,0.025602257262314264,0.4197890027935921,0.04529572864795905,0.2530851175392115,0.05250565974877964,0.03896275226722363,0.06945241783038379,0.1593129208022237,0.5381582854019746
0.086,0.0572906988896854,0.031417844191856364,0.03695377791569005,0.026054896255085957,0.4157134856801491,0.04523124048655799,0.2492871448349242,0.05245333165494742,0.03892679530063569,0.07013261330663496,0.15681497999137978,0.5437350584905514
0.087,0.057157171081813736,0.03143547044891841,0.03687338710209042,0.02654067471479648,0.41151353544604585,0.045160425743985405,0.2454278096239096,0.052389177975584386,0.03888655885156588,0.07079730966296484,0.15429085484521218,0.5491954282094353
0.088,0.057008104421929544,0.03144753744514202,0.03678916685431123,0.027060581966668915,0.40719394828001293,0.045083680852504436,0.2415115401847146,0.052313726994198284,0.038842324424859666,0.07144613073657258,0.15174412150436603,0.5545381661360442
0.089,0.05684392929110529,0.03145422135797533,0.036701420259113916,0.02761558568789983,0.4027595846903711,0.04500139787111274,0.23754274481015122,0.052227501260634246,0.038794366542699764,0.07207870948881828,0.14917833044216985,0.5597622132695038
0.09,0.056665080861452895,0.03145570018862586,0.036610449029892446,0.028206630268162836,0.39821536494621607,0.04491396409853477,0.23352580699036213,0.05213101709662948,0.03874295243539843,0.07269468869375192,0.14659700327225833,0.5648666819709407
0.091,0.05647199850502956,0.03145215355964349,0.036516553101151046,0.028834635175697537,0.39356626448662496,0.04482176170438532,0.22946508072353977,0.05202478412143218,0.03868834175180907,0.07329372162897582,0.1440036296648352,0.5698508575987628
0.092,0.05626512519762698,0.031443762512056175,0.03642003023155425,0.029500493330726987,0.38881730930233804,0.04472516737857191,0.22536488595980494,0.051909304797955975,0.038630786289333335,0.07387547276675452,0.14140166437202553,0.5747141998322447
0.093,0.056044906919139575,0.031430709302101956,0.03632117561605511,0.030205069488152967,0.3839735712952834,0.04462455199902922,0.22122950418372264,0.05178507399996243,0.03857052974353893,0.07443961846324045,0.13879452436231338,0.5794563436762695
0.094,0.05581179205224594,0.031413177197665704,0.036220281507535694,0.030949198631541396,0.3790401636220225,0.04452028031769662,0.21706317414033194,0.05165257860056711,0.0385078074773077,0.07498584764360788,0.13618558606368664,0.5840771001401959
0.095,0.05556623078105779,0.031391350274435924,0.03611763684838096,0.031733684380518726,0.37402223602788137,0.04441271066468019,0.21287008770913224,0.05151229708242701,0.0384428463094598,0.0755138624808784,0.1335781827147536,0.5885764565840506
0.096,0.05530867449139696,0.0313654132119507,0.0360135269124267,0.03255929741396496,0.36892497017886094,0.04430219467037559,0.2086543859296568,0.051364699169833314,0.03837586432271728,0.07602337906611767,0.13097560182274556,0.5929545767258313
0.097,0.055039575174200446,0.03133555108973062,0.03590823295765714,0.033426773911412876,0.36375357499879835,0.044189077005206724,0.20442015518179243,0.05121024548301315,0.03830707069089397,0.07651412806750504,0.12838108272714222,0.5972118003041205
0.098,0.0547593848335579,0.03130194918377631,0.03580203189019045,0.03433681401534513,0.3585132820196313,0.044073695136669644,0.20017142352337833,0.0510493872148662,0.03823666552509053,0.07698585537563811,0.12579781426739828,0.60134864239022
0.099,0.054468554900738216,0.031264792763866976,0.035695195939923485,0.03529008031708543,0.3532093407529288,0.043956379103219485,0.19591215718725333,0.05088256583038357,0.03816483973866645,0.07743832273217896,0.12322893255304312,0.6053657923437268
0.1,0.05416753565545567,0.03122426689210284,0.03558799234830666,0.03628719636914477,0.34784701409128793,0.04383745130460735,0.1916462572393003,0.05071021278891829,0.03809177493073966,0.07787130833875305,0.12067751883428664,0.609264112404951
0.101,0.05385677565559975,0.031180556223216707,0.03548068306863771,0.03732874522697712,0.34243157374828503,0.04371722630822227,0.18737755639855694,0.050532749289455066,0.03801764328800072,0.07828460744292474,0.11814659747100854,0.6130446359170342
0.102,0.053536721176429644,0.031133844807132268,0.035373524479201925,0.03841526802320543,0.3369682957453547,0.04359601067092812,0.1831098160197263,0.05035058603907025,0.03794260750467899,0.07867803289781543,0.11563913399791675,0.6167085651704188
0.103,0.05320781566023389,0.031084315894340107,0.03526676710955641,0.03954726257738733,0.33146245595334345,0.04347410277597635,0.1788467232378668,0.05016412304464723,0.03786682072052618,0.07905141569186944,0.11315803328346741,0.6202572688622123
0.104,0.052870499177308336,0.031032151744603574,0.03516065538017321,0.040725182044572324,0.32591932569586096,0.04335179268454107,0.17459188827426106,0.049973749427983875,0.037790426476686866,0.07940460544515757,0.11070613778016325,0.6236922791632983
0.105,0.05252520789912528,0.03097753343954387,0.03505542735566923,0.041949433605789475,0.32034416742111466,0.0432293620015247,0.17034884190199703,0.04977984326419235,0.037713558689226066,0.07973747086846289,0.10828622586378585,0.6270152883869781
0.106,0.05217237358456604,0.030920640699620944,0.034951314511759674,0.04322037720381934,0.3147422304486392,0.043107083755423624,0.16612103306919365,0.049582771443334714,0.037636341640127094,0.08004990018151069,0.10590101025936725,0.6302281452544095
0.107,0.05181242308022673,0.0308616517058878,0.034848541516032804,0.04453832432749113,0.3091187467970789,0.042985222292121546,0.16191182667752324,0.04938288955498177,0.037558889985505696,0.08034180148666734,0.10355313655180824,0.6333328507541157
0.108,0.051445777835810745,0.03080074292692652,0.03474732602255674,0.04590353684779159,0.30347892709885615,0.04286403318261244,0.15772450151337283,0.04918054179539132,0.03748130878085388,0.08061310309476957,0.10124518177924177,0.6363315535954633
0.109,0.05107285343572173,0.03073808895120462,0.034647878480253254,0.047316225908989755,0.29782795660728245,0.04274376314472298,0.1535622483288428,0.04897606089680636,0.037403693523044165,0.08086375380003631,0.0989796531072964,0.6392265452587007
0.11,0.05069405914799647,0.030673862325173096,0.03455040195493217,0.04877655087786857,0.29217099130126206,0.04262464997897728,0.1494281680696253,0.04876976807842415,0.03732613020899438,0.08109372310146251,0.09675898658251209,0.6420202546471601
0.111,0.05030979749171113,0.030608233397338397,0.03445509196484742,0.05028461835406792,0.2865131540925842,0.042506922518673745,0.14532527024690894,0.04856197301855829,0.0372486954107848,0.08130300136864589,0.09458554596314818,0.6447152423503726
0.112,0.0499204638240436,0.030541370168525393,0.03436213632966845,0.05184048124444548,0.28085953114048723,0.04239080059430629,0.14125647145050202,0.04835297384750784,0.0371714563671709,0.08149159995062681,0.09246162162558595,0.6473141945307274
0.113,0.04952644594812966,0.030473438148524625,0.03427171503265202,0.05344413790417127,0.2752151682778895,0.04227649501227564,0.13722459400058937,0.048143057160735955,0.03709447109138345,0.08165955122694671,0.0903894295444653,0.6498199164500275
0.114,0.04912812374273094,0.03040460021919748,0.03418400009589281,0.055095531347210534,0.2695850675531654,0.04216420754790601,0.13323236473562666,0.04793249805192192,0.037017788495141986,0.08180690860049548,0.08837111034467617,0.6522353256546969
0.115,0.048725868814689356,0.030335016504111068,0.034099155468359864,0.056794548528771804,0.2639741838909007,0.042054130952589065,0.12928241393407922,0.04772156016536774,0.03694144852882524,0.08193374643199354,0.0864087284235715,0.6545634448393806
0.116,0.048320044174940846,0.030264844244683252,0.034017336926566846,0.05854101970215121,0.2583874218742932,0.04194644897487508,0.1253772743677852,0.04751049576723381,0.036865482337640185,0.08204015991616496,0.08450427114195044,0.6568073944091519
0.117,0.04791100393880908,0.03019423768278125,0.03393869198759611,0.06033471785253046,0.25282963265132613,0.04184133639518123,0.12151938048472657,0.047299545834948345,0.03678991243369612,0.08212626489995578,0.08265964808276671,0.658970384761245
0.118,0.0474990930512065,0.030123347949774025,0.03386335983433112,0.06217535821006613,0.2473056109659814,0.04173895907379799,0.11771106771889824,0.04708894016402615,0.03671475288373005,0.08219219764357638,0.08087669037667071,0.6610557083086099
0.119,0.047084647037354814,0.03005232296199921,0.0337914712526954,0.06406259784477772,0.241820092315114,0.041639474011794235,0.1139545719248569,0.046878897491572064,0.036640009512307406,0.08223811452554275,0.07915715009375751,0.6630667312691627
0.12,0.04666799177953518,0.02998130732266418,0.03372314858078722,0.0659960353455201,0.23637775023078822,0.041543029424389005,0.11025202893461217,0.046669625635624316,0.03656568012020506,0.08226419169337469,0.07750269970100446,0.665006885245783
0.121,0.04624944332041489,0.02991044223012268,0.03365850566985577,0.06797521058529585,0.23098319368710651,0.04144976482633624,0.10660547423463662,0.04646132164951092,0.03649175471765973,0.08227062466209391,0.0759149315849791,0.6668796586223743
0.122,0.04582930769328295,0.02983986539251395,0.033597647857112424,0.06999960457507406,0.22564096462989508,0.04135981112882114,0.10301684276091548,0.0462541719903833,0.03641821577206499,0.0822576278631916,0.07439535763944426,0.6686885878004006
0.123,0.04540788077955692,0.029769710948718713,0.033540671950413804,0.07206863940800604,0.22035553562703405,0.041273290747403435,0.09948796881000829,0.04604835270106327,0.036345038469621914,0.0822254341470638,0.07294540891744572,0.6704372482990788
0.124,0.044985448193728156,0.029700109395716847,0.03348766622483631,0.07418167829589836,0.21513130763686586,0.04119031772061267,0.09602058606422323,0.04584402960433922,0.036272190990333415,0.08217429424219408,0.0715664353474068,0.6721292457411704
0.125,0.04456228519589962,0.029631187522442037,0.03343871043114645,0.07633802569958034,0.2099726078918695,0.04111099783876126,0.09261632772896995,0.04564135850877177,0.03619963479566715,0.08210447617443346,0.07025970551262674,0.6737682067456205
0.126,0.04413865663193795,0.029563068350363708,0.0333938758160953,0.07853692755463279,0.2048836878945517,0.04103542878267569,0.08927672678032635,0.04544048542495815,0.03612732492814895,0.08201626464985706,0.06902640649362689,0.6753577697476779
0.127,0.043714816901131354,0.02949587108100013,0.03335322515442856,0.08077757159385697,0.1998687215223891,0.04096370027197696,0.08600321632074831,0.045241546791204595,0.03605521032217251,0.08190996040447315,0.067867643772724,0.6769015757663581
0.128,0.04329100995119238,0.029429711050595102,0.03331681279241251,0.08305908776756453,0.19493180323815398,0.040895894222575925,0.08279713004067801,0.045044669707408676,0.03598323412528745,0.08178587952398436,0.06678444120018158,0.6784032591380051
0.129,0.04286746930027174,0.029364699692186042,0.03328468470266744,0.08538054876270235,0.1900769464017104,0.04083208491306002,0.07965970278377778,0.04484997217599217,0.035911334029273115,0.0816443527365274,0.06577774102126402,0.6798664382338591
0.13,0.0424444180856593,0.029300944505178575,0.03325687854999388,0.08774097062158477,0.18530808167887136,0.04077233915955685,0.0765920712132478,0.04465756334871019,0.035839442610292656,0.0814857246810566,0.06484840396343831,0.6812947061791342
0.131,0.04202206913880129,0.029238549032631688,0.033233423767950576,0.09013931346072648,0.18062905554301087,0.040716716498677356,0.07359527457670725,0.044467543778116674,0.03576748767748273,0.08131035315391366,0.06399720938292659,0.6826916215916207
0.132,0.041600625086229914,0.029177612846285974,0.03321434164582822,0.09257448229009678,0.17604362886522945,0.04066526937810007,0.07067025556694485,0.04428000567258119,0.03569539262925374,0.08111860833590599,0.06322485546974113,0.6840606993590586
0.133,0.04118027847606015,0.029118231539452224,0.03319964542582366,0.09504532793277388,0.1715554755894059,0.040618043354299305,0.06781786127589733,0.04409503315378907,0.03562307681661248,0.080910872002121,0.06253195951036389,0.6854054014766776
0.134,0.04076121192962837,0.02906049672771691,0.03318934041015397,0.09755064804473647,0.16716818148882565,0.040575077296909436,0.06503884423916377,0.04391270251583057,0.03555045591273007,0.0806875367166038,0.06191905820720896,0.686729127968582
0.135,0.04034359831792973,0.029004496057477642,0.033183424077932476,0.10008918823428023,0.16288524300149312,0.04053640359913468,0.06233386356829256,0.04373308248518658,0.035477442288056195,0.08044900501392757,0.06138660805402335,0.688035207918936
0.136,0.0399276009624245,0.028950313222206512,0.033181886211613464,0.10265964328026696,0.15871006614137287,0.040502048393575,0.05970348616798858,0.04355623448100084,0.03540394539031537,0.08019568856972158,0.0609349857663209,0.6893268906399295
0.137,0.03951337385978365,0.028898027986393585,0.0331847090328016,0.10526065844827952,0.1546459654827637,0.040472031772775516,0.05714818803525363,0.043382212875193706,0.035329872128792635,0.07992800736211861,0.06056448876585731,0.690607337003582
0.138,0.03910106193018707,0.028847716217009944,0.0331918673472263,0.10789083090344928,0.15069616321500112,0.04044636801376367,0.0546683556373798,0.04321106525203535,0.03525512726237036,0.07964638882620409,0.060275335718100106,0.6918796109633312
0.139,0.0386908012886212,0.028799449922444657,0.03320332869875944,0.11054871121859117,0.14686378826455573,0.04042506580582726,0.05226428736566773,0.04304283266687678,0.0351796137908472,0.07935126700345062,0.06006766712164912,0.6931466712899395
0.14,0.038282719538758885,0.02875329729874852,0.03321905353231809,0.1132328049760026,0.14315187548168734,0.04040812848075428,0.04993619506165483,0.04287754990386708,0.03510323334896834,0.07904308168824367,0.05994154594840085,0.6944113635445864
0.141,0.03787693608882925,0.028709322783158516,0.033238995365649913,0.11594157446103136,0.13956336488913565,0.040395554244772196,0.04768420561258861,0.04271524573251144,0.03502588660260048,0.07872227757361938,0.0598969583332821,0.6956764123104514
0.142,0.03747356248889334,0.028667587114748972,0.03326310096990587,0.11867344044532865,0.13610110099084322,0.040387336411440496,0.04550836261274145,0.0425559431630136,0.034947473646419834,0.07838930339849799,0.05993381431220063,0.6969444137023042
0.143,0.037072702788922184,0.028628147402133236,0.03329131055900234,0.12142678405744702,0.1327678321392303,0.04038346363484473,0.04340862808719774,0.04239965970029191,0.034867894402303395,0.07804461109867698,0.06005194860685381,0.698217828171955
0.144,0.036674453916947986,0.02859105719806194,0.033323557987661914,0.12419994873820214,0.12956620995991672,0.04038392014248026,0.04138488427465963,0.04224640759657359,0.03478704901770293,0.07768865496402175,0.06025112145493888,0.6994989736257851
0.145,0.036278906076582726,0.028556366580705036,0.03335977095812207,0.12699124227800931,0.1264987888328382,0.04038868596739576,0.039436935465917734,0.04209619410241735,0.03470483826304642,0.07732189080437196,0.06053101948431237,0.7007900188691681
0.146,0.03588614316308171,0.028524122241437414,0.03339987123541182,0.12979893893300107,0.12356802542868867,0.04039773717923394,0.03756450989471097,0.04194902171604276,0.03462116392731173,0.07694477512670975,0.0608912566295706,0.702092977391251
0.147,0.03549624319702491,0.028494367578900184,0.03344377487117903,0.13262128161651363,0.1207762782993235,0.04041104611400238,0.035767261677728056,0.04180488843073424,0.034535929210752186,0.07655776432626424,0.06133137508955554,0.7034097015026138
0.148,0.035109278774682895,0.02846714279911843,0.03349139243597934,0.13545648416212408,0.1181258075206279,0.04042858160238999,0.03404477280052294,0.04166378798015018,0.03444903911380826,0.07616131389409213,0.061850846324264346,0.7047418768371724
0.149,0.034725317533903614,0.028442485021401842,0.033542629259861734,0.1383027336541545,0.11561877438613327,0.04045030919665289,0.03239655514612461,0.04152571008127903,0.034360400821213014,0.07575587764352443,0.06244907208963003,0.7060910172287501
0.15,0.034344422634465216,0.028420428389787276,0.03359738568109233,0.1411581928211872,0.11325724114956925,0.040476191395954736,0.0308220525632027,0.0413906406747557,0.03426992408028871,0.07534190695775417,0.0631253855085691,0.7074584599714474
0.151,0.03396665325160967,0.02840100418971511,0.03365555730266248,0.14402100248787106,0.11104317081448851,0.0405061878702027,0.029320642970710433,0.04125856216216492,0.034177521572451075,0.07491985006044291,0.06387905217668742,0.7088453614717275
0.152,0.033592065081541694,0.028384240969652662,0.033717035256257834,0.14688928408000523,0.10897842696912838,0.04054025568224452,0.027891640495961784,0.04112945363999734,0.034083109276913964,0.07449015131114783,0.06470927130108826,0.7102526932987292
0.153,0.033220710857555694,0.028370164667332727,0.03378170647328448,0.1497611421777005,0.10706477366477841,0.04057834950837455,0.02653429764314912,0.04100329112978724,0.033986606825630754,0.07405325052708864,0.0656151768706693,0.7116812386380102
0.154,0.0328526408754644,0.02835879874031841,0.03384945396242049,0.1526346671113138,0.10530387533610934,0.04062042185696856,0.02524780748937101,0.04088004780413879,0.03388793784873202,0.07360958233267877,0.06659583885644767,0.7131315891534967
0.155,0.032487903526983414,0.028350164300553475,0.03392015709321509,0.15550793759483003,0.10369729676216867,0.04066642328501731,0.024031305905165695,0.04075969420828274,0.03378703030982371,0.07315957553816634,0.06765026444051543,0.714604142262481
0.156,0.032126545839658384,0.028344280252531377,0.033993691885136554,0.15837902339125012,0.10224650306713398,0.04071630261233081,0.02288387379657423,0.040642198476985476,0.03368381683092197,0.07270365254867667,0.06877739927234867,0.7160990988295026
0.157,0.03176861402200417,0.028341163434705212,0.03406993130142178,0.16124598800457712,0.10095285976025926,0.04077000713311822,0.021804539365713672,0.04052752654651749,0.03357823500682517,0.0722422288048981,0.06997612875129162,0.7176164612856178
0.158,0.0314141540124277,0.02834082876376527,0.03414874554700036,0.1641068913928565,0.09981763281481038,0.040827482824793475,0.020792280386830033,0.0404156423614358,0.03347022770899236,0.07177571225655045,0.0712452793339786,0.7191560321801579
0.159,0.031063212030647137,0.028343289381336987,0.03423000236977472,0.16695979269662897,0.09884198878627175,0.04088867455373745,0.019846026494835214,0.04030650807586141,0.03335974337893049,0.07130450286969814,0.07258361986553011,0.7207174131717481
0.16,0.030715835130265958,0.028348556802749763,0.034313567364474676,0.16980275297683922,0.09802699497052107,0.040953526277962546,0.0189646614834062,0.0402000842489434,0.033246736311120684,0.07082899216882765,0.07398986293322708,0.7223000044646108
0.161,0.030372071751284032,0.028356641067522923,0.034399304278305134,0.17263383795582476,0.09737361960288181,0.04102198124653625,0.018147025609824466,0.04009633003420367,0.03313116692542725,0.07034956281452383,0.07546266624144356,0.7239030046949364
0.162,0.030031972271377872,0.02836755089129952,0.03448707531756629,0.17545112075473185,0.0968827320991102,0.04109398219568997,0.017391917903805204,0.039995203362514824,0.03301300202888504,0.06986658821750595,0.07700063400651118,0.7255254112711989
0.163,0.029695589554895156,0.028381293818982762,0.03457674145433887,0.1782526846204357,0.09655510333930943,0.04116947154147421,0.01669809847762907,0.03989666111845729,0.03289221506674595,0.06938043218968869,0.07860231837026967,0.7271660211714978
0.164,0.0293629794984866,0.028397876378823225,0.03466816273231417,0.18103662563517064,0.09639140599556917,0.04124839156881891,0.016064290834906278,0.03980065930991873,0.0327687863625479,0.06889144863280787,0.08026622083099205,0.7288234322006271
0.165,0.02903420157240295,0.028417304237196375,0.034761198570778924,0.18380105540219066,0.09639221490390838,0.04133068461682972,0.015489184175376975,0.0397071532308535,0.032642703346960886,0.06839998126500006,0.08199079369047557,0.7304960447090896
0.166,0.028709319356373674,0.028439582353790373,0.03485570806586933,0.1865441037008678,0.09655800748091839,0.041416293260126975,0.01497143569311022,0.03961609761717159,0.03251396077506292,0.06790636338565248,0.08377444151614777,0.7321820637756523
0.167,0.02838840106902114,0.028464715136824248,0.034951550288165205,0.1892639211047182,0.09688916418522353,0.04150516048596687,0.01450967286554678,0.039527446795833074,0.03238256093162904,0.06741091767856915,0.0856155226171631,0.733879501853816
0.168,0.028071520089746626,0.028492706597929615,0.03504858457584927,0.1919586815558742,0.09738596902375714,0.04159722986686916,0.014102495730858824,0.03944115482712859,0.03224851382402091,0.06691395605351828,0.0875123505335046,0.7355861818812112
0.169,0.027758755471976624,0.02852356050627696,0.03514667082274121,0.19462658488963297,0.09804861010251871,0.04169244572829115,0.013748479151186674,0.03935717564028463,0.03211183736217552,0.06641577952602204,0.08946319553720496,0.7372997408488298
0.17,0.027450192446690717,0.028557280541523244,0.03524566976050334,0.19726585930285864,0.09887718022129767,0.041790753310946505,0.013446175059421157,0.0392754631624655,0.031972557525246005,0.06591667813518652,0.0914662861447512,0.7390176338247665
0.171,0.027145922915195457,0.028593870445211653,0.035345443234485824,0.19987476376007443,0.09987167751161473,0.04189209892729761,0.01319411468723057,0.039195971441412646,0.03183070851439066,0.06541693089922951,0.093519810639879,0.7407371384245983
0.172,0.02684604593003937,0.02863333417025904,0.03544585447258211,0.20245159033151947,0.10103200611691074,0.041996430111798384,0.012990810772209272,0.03911865476196249,0.03168633289133058,0.06491680580824957,0.09562191860607192,0.7424553597179685
0.173,0.026550668163157397,0.02867567602825511,0.03554676834654534,0.2049946664577398,0.10235797691384763,0.042103695764581416,0.01283475974206395,0.03904346775674667,0.03153948170223505,0.06441655985366818,0.09777072246829778,0.7441692355585408
0.174,0.02625990436025047,0.02872090083434348,0.03564805162518814,0.20750235713583037,0.10384930827327339,0.04221384628822028,0.012724443873901207,0.03897036551138716,0.03139021458664388,0.0639164390936824,0.09996429904370127,0.7458755423221033
0.175,0.025973877780540756,0.028769014049591094,0.0357495732189386,0.20997306702262808,0.10550562685921237,0.04232683371739786,0.01265833342683653,0.03889930366447069,0.031238599871159664,0.06341667875395589,0.1022006911011404,0.7475709010354019
0.176,0.02569272062107097,0.02882002192077447,0.03585120441512266,0.212405242450334,0.10732646846390119,0.04244261184116586,0.012634888746207489,0.038830238502569565,0.031084714647727666,0.06291750336274218,0.10447790892949917,0.7492517838764909
0.177,0.025416574424718712,0.028873931617571867,0.03595281910347157,0.21479737334993446,0.10931127887680546,0.04256113631756757,0.012652562337776153,0.03876312705050629,0.030928644836359966,0.06241912691941186,0.10679393191488977,0.7509145210259578
0.178,0.025145590471152907,0.028930751367211353,0.036054293991296525,0.2171479950775787,0.11145941478559487,0.042682364780315625,0.012709800910325213,0.03869792715700315,0.030770485232206296,0.06192175309542611,0.10914671012676767,0.7525553078471755
0.179,0.024879930149927055,0.028990490586570328,0.036155508807789984,0.2194556901388454,0.11377014470733057,0.042806256937166595,0.012805047385056624,0.03863459757588176,0.03061033953682384,0.06142557546649536,0.11153416591306209,0.7541702123726229
0.18,0.02461976531496255,0.029053160011748357,0.036256346497065016,0.22171908980567875,0.11624264994871063,0.04293277465970159,0.012936742870301485,0.038573098042866814,0.030448320373565794,0.06093077777476612,0.11395419550446906,0.755755183072121
0.181,0.024365278619588458,0.029118771825154443,0.03635669339953769,0.22393687562055253,0.11887602559473502,0.04306188206430214,0.013103328599989028,0.03851338934821108,0.030284549286940986,0.06043753421962065,0.11640467062809198,0.7573060568775518
0.182,0.02411666383140191,0.029187339780006743,0.03645643942148099,0.2261077807825284,0.12166928152569466,0.04319354558422607,0.013303247834481106,0.03845543340530019,0.030119156725879444,0.05994600977561765,0.11888344013065737,0.7588185674380451
0.183,0.02387412612612417,0.029258879322229554,0.03655547819266554,0.22823059141010302,0.12462134346271699,0.04332773403285695,0.013534947722313426,0.03839919331547594,0.02995228201074771,0.059456360535941596,0.12138833161152485,0.7602883535799254
0.184,0.023637882359786033,0.02933340770961732,0.03665370721221749,0.2303041476762649,0.12773105404233653,0.04346441865827496,0.013796881121515015,0.03834463342931689,0.029784073284068156,0.058968734079563254,0.12391715306566568,0.7617109679479654
0.185,0.023408161318586886,0.029410944128196163,0.036751027982910536,0.23232734481193387,0.13099717392060128,0.043603573189381156,0.014087508379157888,0.03829171940458473,0.029614687444812198,0.05848326986016652,0.12646769453672635,0.7630818858082478
0.186,0.02318520394587611,0.02949150980569397,0.036847346134202576,0.23429913397483437,0.13441838290739555,0.043745173873831596,0.014405299067858299,0.0382404182610425,0.029444290066193517,0.05800009961469238,0.12903772978026876,0.7643965139974579
0.187,0.022969263545716344,0.029575128122010477,0.03694257153435338,0.2362185229820456,0.13799328113157946,0.043889199508011234,0.014748733677977128,0.038190698432290254,0.02927305529689189,0.05751934778924028,0.13162501793716314,0.7656502000075079
0.188,0.02276060596257915,0.029661824716559305,0.03703661839198807,0.23808457690524584,0.141720390237691,0.04403563145924947,0.015116305264279789,0.03814252981471355,0.029101165745603327,0.057041131979878305,0.13422730521714016,0.7668382411970754
0.189,0.022559509736691304,0.029751627592306075,0.037129405347366785,0.23989641852850052,0.14559815461471046,0.04418445368037947,0.015506521045861841,0.03809588381361652,0.028928812348931875,0.056565563385783314,0.1368423265924564,0.7679558941233974
0.19,0.02236626623455184,0.029844567216307273,0.03722085555357125,0.24165322866882494,0.14962494265744458,0.04433565271667589,0.01591790395810507,0.038050733386452554,0.028756194222544735,0.05609274727208434,0.13946780750155424,0.7689983839880546
0.191,0.022181179754196707,0.029940676616554442,0.037310896747768656,0.24335424636034328,0.1537990480608829,0.04448921770509518,0.016348994155502727,0.0380070530830551,0.02858351849556052,0.05562278343981309,0.14210146556245973,0.7699609141898764
0.192,0.02200456760465512,0.03003999147491106,0.037399461312561805,0.24499876890323904,0.15811869114788998,0.044645140365707506,0.01679835046422508,0.037964819082651285,0.02841100012810532,0.055155766700339205,0.144741012295315,0.7708386759766478
0.193,0.021836760159100733,0.030142550216013905,0.037486486327433975,0.24658615177893276,0.16258202023044938,0.04480341498517514,0.017264551783322583,0.03792400922739152,0.028238861712012887,0.05469178735184829,0.14738415485321163,0.7716268581855465
0.194,0.021678100881111287,0.030248394092023984,0.037571913610210485,0.2481158084330511,0.16718711300447153,0.04496403839208605,0.017746198433602846,0.03788460305213018,0.028067333254703532,0.05423093165536834,0.15002859776028316,0.7723206570607473
0.195,0.021528946323468242,0.03035756726315528,0.03765568974845442,0.24958720992791844,0.17193197797797755,0.04512700992406685,0.01824191345314366,0.037846581810094905,0.027896651946404585,0.0537732823079568,0.1526720446559255,0.7729152861352891
0.196,0.02138966609889268,0.030470116873890236,0.03773776612073579,0.2509998844665282,0.1768145559319309,0.04529233138644066,0.018750343838489336,0.037809928494066676,0.02772706191103158,0.053318918910730026,0.15531220004405583,0.7734059861629471
0.197,0.021260642822129402,0.030586093124871025,0.0378180989076177,0.2523534167904297,0.18183272141263865,0.045460007002340826,0.019270161730531584,0.03777462785269963,0.027558813941112106,0.052867918429435994,0.15794677104636135,0.7737880350844268
0.198,0.021142272022836386,0.030705549340260513,0.03789664909236193,0.25364744745475887,0.18698428425407893,0.045630043354113296,0.0198000655439962,0.03774066640166795,0.027392165217195265,0.05242035564533906,0.1605734691584741,0.7740567580109728
0.199,0.0210349620287305,0.03082854203047726,0.037973382451216856,0.2548816719844757,0.19226699112797696,0.04580244931594927,0.020338781039530452,0.037708032429290245,0.02722737901226114,0.05197630359431302,0.16319001200811475,0.7742075372077157
0.2,0.020939133818566106,0.030955130950020313,0.03804826953331627,0.25605583991663516,0.1976785271190536,0.04597723597775868,0.020885062337214617,0.0376767159964493,0.02706472438153839,0.051535833992050015,0.16579412511419367,0.7742358220586834
0.201,0.020855220844525464,0.03108537915010798,0.0381212856301888,0.2571697537340825,0.20321651732241097,0.04615441656046923,0.021437692870425303,0.03764670893059856,0.026904475838222783,0.05109901764347721,0.16838354364608354,0.7741371389951873
0.202,0.020783668823710515,0.03121935302574,0.03819241073499318,0.25822326769634796,0.20887852845960875,0.046334006323044005,0.021995486279015125,0.037618004813744804,0.026746913015548105,0.050665924834459926,0.17095601418240347,0.7739071013689559
0.203,0.020724935498375643,0.03135712235679437,0.03826162949163126,0.2592162865736062,0.21466207050967048,0.04651602246153444,0.02255728724081667,0.03759059896427886,0.026592320315682746,0.05023662570393764,0.1735092964688697,0.7735414192509764
0.204,0.020679490364662764,0.031498760342709674,0.03832893113401438,0.2601487642893768,0.22056459835070982,0.046700484000514034,0.023121972240737088,0.03756448841258494,0.026440986545955503,0.04981119059460186,0.1760411651747614,0.7730359091369651
0.205,0.02064781436955852,0.031644343630251225,0.03839430941581104,0.26102070247721476,0.2265835134073108,0.04688741167713361,0.0236884502768397,0.037539671870374235,0.026293204542914315,0.0493896903802754,0.17854941164749788,0.7723865035404529
0.206,0.020630399575943526,0.031793952333916284,0.03845776253113372,0.2618321489559542,0.23271616529805633,0.04707682781795439,0.024255663503095905,0.037516149693749445,0.026149270784764866,0.04897219676814757,0.1810318456645892,0.7715892604544163
0.207,0.020627748795631506,0.03194767004845069,0.038519293026603486,0.26258319612759234,0.2389598534768458,0.047268756208678424,0.024822587808700836,0.037493923840082564,0.026009484992688407,0.048558782574196095,0.18348629718198545,0.7706403726616943
0.208,0.020640375190417917,0.03210558385308396,0.03857890770541314,0.26327397930167157,0.24531182886082575,0.047463221956863026,0.02538823333407438,0.037472997818879666,0.025874149721594415,0.04814952197025249,0.18591061807787812,0.7695361768731558
0.209,0.020668801841140245,0.0322677843069946,0.0386366175238123,0.2639046749506836,0.25176929543699045,0.047660251347638925,0.025951644923849368,0.03745337663690842,0.025743569940868304,0.04774449070144949,0.18830268389088847,0.768273162670775
0.21,0.020713561284788972,0.03243436543566686,0.03869243748058729,0.2644754989020781,0.2583294118386828,0.04785987169240816,0.02651190251741773,0.037435066737855176,0.02561805260576091,0.04734376627290218,0.1906603955517666,0.7668479812305867
0.211,0.020775195019749643,0.032605424707691816,0.03874638649997031,0.264986704474208,0.26498929288250067,0.048062111170443456,0.027068121477796643,0.03741807593687436,0.025497906220073203,0.04694742810475265,0.1929816811076088,0.7652574537983805
0.212,0.020854252979371282,0.03278106300166321,0.03879848730839437,0.26543858056520064,0.27174601105559665,0.04826699866312678,0.027619452859811024,0.037402413350264445,0.02538344039090044,0.046555557654759334,0.19526449743766025,0.7634985798890759
0.213,0.02095129297410656,0.032961384562857736,0.03884876630555001,0.26583144970514194,0.2785965979430065,0.04847456358055309,0.02816508361876238,0.03738808932045943,0.02527496537620839,0.04616823850786921,0.19750683195941937,0.7615685451790156
0.214,0.021066880102731583,0.03314649694948915,0.03889725343006939,0.26616566608273373,0.2855380455848161,0.0486848356801024,0.02870423676094079,0.03737511533647041,0.02517279162601881,0.045785556432334215,0.19970670432356888,0.7594647290588351
0.215,0.02120158613313164,0.03333651096842763,0.03894398202026755,0.2664416135578094,0.2925673077533143,0.0488978448765806,0.029236171437393148,0.037363503949844494,0.025077229317938016,0.04540759940218295,0.20186216809582372,0.7571847118137348
0.216,0.021355988853384366,0.03353154060029983,0.03898898867035547,0.26665970367075525,0.29968130114122266,0.0491136210434818,0.02976018298235434,0.0373532686862562,0.02498858788784021,0.04503445758624526,0.20397131242345584,0.7547262813981722
0.217,0.02153067139373301,0.03373170291390653,0.039032313082639346,0.2668203736594132,0.3068769064530134,0.049332193805029255,0.030275602897808777,0.03734442395293312,0.02490717555643511,0.044666223304296385,0.2060322636838208,0.7520874397737309
0.218,0.02172622152027033,0.03393711796989511,0.039073997916259755,0.26692408449346405,0.3141509693923851,0.04955359231872374,0.03078179878549562,0.03733698494227189,0.02483329885258373,0.04430299095130172,0.2080431871119498,0.7492664087814088
0.219,0.02194323090105595,0.03414790871366062,0.03911408863302842,0.26697131893555465,0.3215003015402685,0.04977784504837499,0.03127817422784679,0.03733096753201787,0.024767262134102623,0.043944856891051515,0.2100022884041222,0.7462616355220874
0.22,0.022182294345546402,0.03436420085738224,0.039152633341026956,0.2669625796378479,0.3289216811193387,0.05000497952782304,0.03176416861934048,0.03732638818250123,0.024709367106929184,0.04359191932063817,0.21190781529438585,0.7430717972208197
0.221,0.02244400901823214,0.034586122751247124,0.0391896826366145,0.2668983872819724,0.3364118536433401,0.05023502211578963,0.032239256949919824,0.0373232638314549,0.02465991234344037,0.043244278107282076,0.21375805910118617,0.7396958055526381
0.222,0.02272897362748449,0.03481380524390078,0.03922528944564943,0.26677927876968544,0.3439675324520988,0.05046799774263711,0.032702949542130995,0.03732161178688522,0.024619192800669345,0.04290203459918668,0.21555135624152505,0.7361328104107144
0.223,0.023037787590747743,0.03504738153229548,0.039259508864646006,0.266605805470775,0.3515853991362847,0.0507039296500224,0.03315479174363904,0.037321449618451366,0.02458749933922336,0.04256529141208736,0.21728608971030258,0.7323822031018309
0.224,0.0233710501773247,0.035286987001118944,0.03929239800266042,0.26637853153392455,0.359262103858914,0.05094283912468988,0.0335943635767453,0.03732279504777671,0.0245651182436169,0.04223415219340685,0.21896069052273004,0.7284436189582781
0.225,0.023729359630114463,0.03553275905204,0.039324015824635544,0.26609803226558537,0.3669942655826717,0.05118474522776654,0.03402127934649317,0.03732566583796792,0.02455233074481037,0.041908721365886005,0.2205736391179167,0.7243169393584177
0.226,0.0241133122677982,0.035784836922942743,0.03935442299692298,0.2657648925813399,0.37477847221350724,0.05142966452101361,0.03443518720889049,0.03733007968264336,0.02454941254571835,0.04158910385278702,0.22212346672199965,0.7200022931507704
0.227,0.024523501568953294,0.03604336149733788,0.039383681735674865,0.2653797055338901,0.38261128067162553,0.051677610791484904,0.034835768700885235,0.03733605409460127,0.024556633350475473,0.04127540478669434,0.22360875666949154,0.7155000574797096
0.228,0.024960517239754367,0.03630847510410131,0.039411855658715356,0.2649430709217511,0.3904892169019753,0.051928594775961616,0.03522273823360972,0.03734360629434891,0.024574256398228318,0.040967729203997286,0.22502814568186136,0.7108108580149561
0.229,0.025424944266910946,0.03658032130770027,0.03943900964154751,0.26445559398269536,0.3984087758373467,0.05218262388642901,0.03559584255052582,0.03735275309853405,0.024602538002265216,0.040666181727188076,0.22638032510253345,0.7059355685923464
0.23,0.025917361957578395,0.03685904468903105,0.03946520967809233,0.26391788417603734,0.4063664213281731,0.05243970193777817,0.035954860151910295,0.03736351080847857,0.02464172709515689,0.04037086623696388,0.22766404208767632,0.7008753102788984
0.231,0.026438342968041647,0.03714479061700052,0.03949052274676363,0.2633305540578251,0.41435858605399384,0.052699828878809515,0.03629960068728444,0.03737589509893766,0.024692064780630824,0.04008188553617546,0.22887810075200282,0.6956314498798631
0.232,0.026988452322949625,0.03743770501091882,0.039515016682458125,0.2626942182525999,0.42238167143212046,0.0529630005276103,0.03662990431717531,0.03738992090732372,0.024753783892784938,0.03979934100757828,0.23002136326870384,0.6902055979085456
0.233,0.027568246426941133,0.03773793409368808,0.039538760054973254,0.262009492525044,0.4304320475395665,0.05322920831232444,0.03694564104579298,0.03740560232362045,0.024827108563302735,0.03952333226724207,0.23109275092224646,0.6845996060414098
0.234,0.028178272070490014,0.03804562413570451,0.039561822054236806,0.2612769929541332,0.43850605306460716,0.053498439018271664,0.03724671002617387,0.03742295248125214,0.02491225379728633,0.03925395681548791,0.2320912451125749,0.6788155640821301
0.235,0.028819065431864615,0.03836092118936117,0.03958427238272392,0.2604973352118083,0.4465999953042897,0.053770674542343175,0.03753303883946382,0.037441983449146836,0.02500942505833698,0.03899130968707429,0.2330158883090197,0.6728557964590124
0.236,0.029491151077090213,0.03868397081392559,0.03960618115523951,0.2596711339474982,0.4547101502235017,0.05404589165545294,0.03780458275014041,0.03746270612515195,0.025118817863477805,0.038735483102344655,0.23386578495211902,0.6667228582800491
0.237,0.030195040959820174,0.03901491779069884,0.03962761880621588,0.2587990022792723,0.4628327625905571,0.05432406177380014,0.03806132393901101,0.03748513013101492,0.025240617388487506,0.03848656612093017,0.23464010230147925,0.6604195309691082
0.238,0.030931233422935155,0.03935390582834973,0.039648656004568905,0.2578815513918473,0.4709640462032248,0.05460515073961349,0.03830327071592288,0.03750926370905711,0.02537499808417036,0.03824464429959188,0.2353380712277366,0.6539488175054766
0.239,0.03170021220370225,0.03970107725847627,0.03966936357611496,0.2569193902413984,0.47910018421846695,0.05488911861199178,0.038530456714069565,0.037535113620749294,0.02552212330400974,0.0380097993557049,0.23595898694672388,0.647313937287962
0.24,0.032502445444282956,0.04005657272151808,0.03968981243346187,0.2559131253666685,0.4872373295981642,0.05517591946850707,0.03874294006778651,0.03756268504736234,0.025682144943682636,0.03778210883778657,0.23650220969381355,0.6405183206436892
0.241,0.03333838470933953,0.04042053084334105,0.039710073513319406,0.25486336080546723,0.4953716056820663,0.0554655012181588,0.038940802575735164,0.03759198149292117,0.025855203092888916,0.03756164580442336,0.23696716533665874,0.6335656030005523
0.242,0.034208464012563125,0.040793087902865385,0.03973021772107109,0.25377069811509173,0.5034991068981028,0.05575780542632347,0.03912414885128405,0.03762300468967453,0.02604142569988608,0.03734847851289459,0.237353345924622,0.6264596187406536
0.243,0.035113098853886505,0.041174377491245084,0.03975031588249207,0.252635736494562,0.5116158996190051,0.05605276715231874,0.03929310546188181,0.03765575450627177,0.026240928249228745,0.03714267011865207,0.23766031017350625,0.6192043947504802
0.244,0.036052685269250186,0.04156453016319143,0.03977043870247859,0.25145907300570447,0.5197180231731576,0.05635031480029589,0.03944782005926535,0.037690228858757224,0.026453813453064544,0.03694427838679107,0.23788768388442103,0.6118041436823891
0.245,0.037027598894673976,0.04196367308102226,0.03979065673059584,0.2502413028893127,0.5278014910167849,0.05665036998415546,0.03958846050223744,0.03772642362447349,0.026680170956418406,0.03675335541652417,0.23803516029604707,0.6042632569417824
0.246,0.03803819404655925,0.042371929652183705,0.03981104033317497,0.24898301997178093,0.5358622920737907,0.056952847407313094,0.039715213973778606,0.037764332558932016,0.02692007705678219,0.03656994737955878,0.2381025003699201,0.5965862974145771
0.247,0.03908480282001728,0.04278941916099778,0.03983165967173787,0.2476848171568057,0.543896392248825,0.05725765475804274,0.039828286094210456,0.03780394721569684,0.027173594438343905,0.03639409427325329,0.23808953300857288,0.5887779919500887
0.248,0.04016773420720544,0.0432162563955995,0.03985258468735251,0.24634728699602942,0.5518997361182475,0.05756469262119607,0.03992790003201672,0.03784525686932684,0.027440771921119222,0.036225829689248534,0.23799615520654013,0.5808432236148608
0.249,0.04128727323771621,0.04365255127104694,0.039873885090649576,0.24497102233185292,0.5598682488024854,0.057873854407005855,0.040014295613904495,0.037888248441441744,0.02772164422524144,0.0360651805982367,0.23782233213450782,0.5727870237338372
0.25,0.042443680143079004,0.044098408449661494,0.03989563035715753,0.24355661700502992,0.5677978380218782,0.05818502629773077,0.04008772843555153,0.037932906429961805,0.02801623175070292,0.035912167151432105,0.23756809715713978,0.5646145637368454
0.251,0.043637189547519536,0.044553926959703026,0.03991788972765209,0.2421046666191123,0.5756843963364592,0.05849808721283854,0.04014846897439395,0.03797921284165352,0.02832454037270645,0.035766802499212685,0.23723355178558983,0.556331146830373
0.252,0.04486800968705412,0.04501919981349375,0.03994073221319673,0.24061576935333284,0.5835238035685454,0.05881290879340905,0.0401968017057266,0.03802714712806394,0.02864656125292185,0.03562909262739026,0.23681886556613752,0.5479421995165807
0.253,0.04613632165895952,0.04549431362626057,0.0399642266045356,0.23909052681517443,0.5913119294052168,0.05912935540637161,0.040233024223290365,0.038076686125049705,0.028982270666775743,0.03549903621137221,0.23632427590680927,0.5394532629823668
0.254,0.04744227870358272,0.04597934823700717,0.03998844148538506,0.2375295449236577,0.599044636176502,0.059447284169078025,0.04025744636554901,0.03812780399602037,0.029331629846970006,0.03537662448860748,0.23575008784398238,0.53086998438131
0.255,0.04878600552046615,0.046474376332867856,0.04001344524923106,0.2359334348143684,0.6067177818042906,0.059766544994619454,0.04027038934885392,0.03818047217910414,0.029694584843341695,0.035261841149488424,0.23509667375098195,0.5221981080302138
0.256,0.05016759762062269,0.04697946307834795,0.04003930611915473,0.23430281375759687,0.6143272229171447,0.060086980658219095,0.04027218490863626,0.03823465933848161,0.03007106639911224,0.035154662247010166,0.23436447299027904,0.5134434665406784
0.257,0.051587120716916054,0.047494665750859276,0.04006609217019122,0.23263830608137412,0.621868818126666,0.06040842688485725,0.04026317444976842,0.03829033132024544,0.03046098984360619,0.03505505612540464,0.2335539915104605,0.504611971904714
0.258,0.05304461015433565,0.04802003338394236,0.040093871353705145,0.2309405440918403,0.6293384314617734,0.06073071245819362,0.04024370820713249,0.03834745111326589,0.03086425500132884,0.03496298336792724,0.23266580138856946,0.4957096065523077
0.259,0.05454007038212356,0.04855560641944741,0.04012271152316194,0.22921016898369084,0.6367319359576179,0.06105365935075228,0.04021414441739408,0.03840597881558307,0.0312807461174266,0.03487839676393938,0.23170054031791384,0.48674241439814375
0.26,0.05607347446954481,0.04910141636998286,0.040152680460684945,0.22744783173382457,0.644045217395752,0.06137708287516085,0.04017484850280007,0.0384658716069663,0.031710331799308676,0.03480124129529348,0.2306589110411348,0.47771649189401755
0.261,0.057644763667178495,0.049657485492836585,0.04018384590366025,0.22565419397133374,0.6512741781916842,0.061700791856207284,0.040126192267835946,0.038527083728146505,0.03215286497432374,0.0347314541420247,0.22954168072839864,0.46863797910298555
0.262,0.05925384701539473,0.05022382647653732,0.04021627557062953,0.22382992881717814,0.6584147414251171,0.06202458882329313,0.040068553109365704,0.03858956646726187,0.032608182863254884,0.03466896470721267,0.22834968030080477,0.45951305081079236
0.263,0.06090060100168684,0.050800442141133176,0.04025003718558096,0.22197572168722,0.6654628550070417,0.062348270222803544,0.04000231324082315,0.03865326815390353,0.033076106969455,0.03461369466089385,0.2270838036994032,0.4503479076895313
0.264,0.06258486926828047,0.051387325153138,0.04028519849981086,0.22009227105273285,0.6724144959767361,0.0626716266497928,0.03992785893099504,0.0387181341611669,0.033556443083374965,0.034565558002803067,0.22574500710072676,0.4411487675280494
0.265,0.06430646237140046,0.05198445775599649,0.040321827310492456,0.2181802891530391,0.6792656749203356,0.06299444309826438,0.039845579757858414,0.03878410691597582,0.03404898130236532,0.034524461143683786,0.22433430808005123,0.43192185654296716
0.266,0.06606515759330886,0.05259181151688436,0.04035999147525254,0.2162405026553218,0.6860124405011826,0.06331649922933406,0.03975586787795418,0.038851125917985556,0.03455349606559736,0.03449030300484355,0.2228527847239789,0.4226734007836961
0.267,0.0678606988081887,0.053209347090622666,0.04039975892201367,0.21427365325714362,0.6926508840906734,0.06363756965644626,0.039659117311769944,0.03891912776722747,0.035069746204034045,0.03446297513557056,0.22130157469410652,0.4134096176444579
0.268,0.06969279640269413,0.053837014001516297,0.04044119765344429,0.21228049822739647,0.6991771444870466,0.0639574242469038,0.0395557232456012,0.03898804620071674,0.03559747500540529,0.03444236184797274,0.21968187424359384,0.40413670749596387
0.269,0.07156112725198516,0.05447475044392163,0.04048437574531107,0.21026181088175497,0.7055874127086215,0.06427582843889691,0.03944608135032486,0.03905781213807961,0.036136410294200526,0.03442834036876174,0.21799493718817473,0.39486084544900635
0.27,0.07346533475190928,0.05512248310230558,0.040529361337980435,0.20821838098898213,0.7118779368478327,0.06459254357335414,0.03933058711753678,0.039128353736308706,0.036686264526806726,0.03442078100741542,0.21624207383280175,0.38558817326191164
0.271,0.07540502890799393,0.05578012699151868,0.04057622262036785,0.2061510151047689,0.718045026972801,0.06490732723983596,0.03920963521350245,0.03919959645366161,0.03724673490205442,0.03441954734011302,0.21442464985461585,0.37632479140352293
0.272,0.0773797864817256,0.05644758531779043,0.04062502780560367,0.20406053683031533,0.7240850600638441,0.06521993363589793,0.03908361885134441,0.03927146312274822,0.03781750348751923,0.03442449640876151,0.21254408514270798,0.3670767512834955
0.273,0.07938915119447765,0.05712474936087197,0.040675845097868195,0.20194778699318977,0.7299944849726043,0.06553011393923752,0.038952929181967536,0.039343874032837386,0.03839823736192382,0.03443547893431422,0.21060185259515052,0.35785004766174844
0.274,0.08143263398923484,0.05781149837754794,0.040728742649998845,0.19981362374858408,0.7357698273909133,0.06583761669204499,0.03881795470413053,0.0394167470214175,0.03898858877400731,0.03445233954354389,0.2085994768738326,0.34865061124912256
0.275,0.08350971335004916,0.05850769952666055,0.04078378851157423,0.1976589225995517,0.7414076948154615,0.06614218819691338,0.038679080694147654,0.039489997575063135,0.039588195318185554,0.03447491700838,0.20653853311765386,0.33948430151096187
0.276,0.08561983567899711,0.059213207815710926,0.040841050567366505,0.19548457633525812,0.7469047814928881,0.06644357292359392,0.038536688655611266,0.03956353893961424,0.04019668012724969,0.034503044496885855,0.2044206456143893,0.33035689968482723
0.277,0.08776241573029737,0.05992786606911394,0.040900596465997134,0.19329149488679004,0.7522578733285021,0.06674151392587127,0.03839115578954137,0.03963728223973306,0.04081365208239606,0.034536549834852784,0.20224748643125742,0.32127410202268036
0.278,0.08993683710099211,0.06065150491822351,0.04096249353880243,0.19108060510038474,0.7574638527402537,0.06703575326772551,0.03824285448529845,0.039711136607834374,0.041438706040761206,0.03457525577700213,0.2000207740039897,0.3122415132668386
0.279,0.09214245277752962,0.061383942813269685,0.04102680870886564,0.18885285042833294,0.7625197034378203,0.06732603245791863,0.038092151832511405,0.03978500932236958,0.04207142308063763,0.03461898028668799,0.19774227168417394,0.30326464036806644
0.28,0.09437858573727621,0.06212498605745256,0.041093608390384694,0.18660919053810912,0.7674225151047944,0.06761209289210071,0.03793940915428123,0.03985880595542765,0.04271137076454636,0.03466753682298706,0.19541378624464545,0.2943488864530425
0.281,0.09664452960378454,0.06287442886341689,0.04116295837858641,0.18435060084091692,0.7721694879606671,0.06789367630143708,0.0377849815618491,0.039932430529561885,0.043358103420396234,0.03472073463411181,0.19303716634275658,0.2854995450475619
0.282,0.0989395493544947,0.0636320534322917,0.04123492373063408,0.18207807194143752,0.7767579371791121,0.06817052520672082,0.03762921753089832,0.04000578568368605,0.044011162440977414,0.034778379056038,0.1906143009413664,0.2767217945606919
0.283,0.10126288207937874,0.06439763005535791,0.0413095686381386,0.17979260901117636,0.78118529714071,0.06844238337679437,0.03747245849959647,0.04007877284787501,0.04467007660203672,0.03484027181540192,0.18814711768732262,0.26802069303432785
0.284,0.10361373778893097,0.06517091723824416,0.041386956292065465,0.1774952310882554,0.7854491255014393,0.06870899629007535,0.037315038488475345,0.040151292426802855,0.045334362399106126,0.034906211335653886,0.1856375812472815,0.25940117316154326
0.285,0.1059913002698216,0.06595166184741641,0.041467148740927495,0.17518697030678845,0.7895471070624414,0.06897011159796645,0.037157283742161894,0.040223243991551395,0.046003524403184295,0.03497599304559302,0.18308769160070915,0.25086803757644177
0.286,0.10839472798638833,0.0667395992785053,0.04155020674333154,0.1728688710591945,0.7934770574308102,0.06922547958888854,0.03699951239301638,0.04029452647942671,0.04667705563527339,0.03504940968934557,0.1804994822901302,0.24242595441730772
0.287,0.11082315502607702,0.06753445364597217,0.04163618961596643,0.1705419890947911,0.7972369264641113,0.06947485365172748,0.036842034146638926,0.040365038401395,0.047354437959708215,0.03512625163693154,0.17787501862900273,0.23407945316422826
0.288,0.11327569208691725,0.06833593799339738,0.04172515507827632,0.16820739055812922,0.8008248014928598,0.06971799073736204,0.036685149989211616,0.040434678056655925,0.04803514249620158,0.0352063071945925,0.1752163958679821,0.22583292075162512
0.289,0.11575142750497433,0.06914375452364828,0.041817159095021775,0.16586615097047824,0.8042389103156675,0.06995465181704648,0.0365291519165809,0.04050334375387799,0.04871863005052355,0.03528936291416217,0.17252573732099535,0.21769059795557624
0.29,0.11824942831959895,0.06995759484806761,0.04191225571790965,0.16351935415784255,0.8074776239617263,0.0701846023362778,0.036374322684895585,0.04057093403845135,0.04940435156374938,0.035375203900793586,0.16980519245308592,0.20965657605528124
0.291,0.12076874137400345,0.07077714025376602,0.04201049692744873,0.1611680911288578,0.8105394592155064,0.07040761266286498,0.03622093558254225,0.04063734792515876,0.05009174857998933,0.03546361411851569,0.16705693493276905,0.20173479376764558
0.292,0.12330839444841292,0.0716020619881307,0.04211193247604918,0.15881345890600249,0.8134230808989662,0.07062345852782162,0.03606925422302196,0.040702485135557104,0.050780253732552544,0.035554376693119706,0.16428316065210996,0.19392903445369403
0.293,0.12586739742268202,0.07243202155960847,0.04221660973336225,0.15645655931376126,0.8161273039070975,0.07083192145772325,0.03591953235831456,0.040766246339255484,0.05146929124833239,0.03564727421207392,0.16148608571825188,0.18624292359513334
0.294,0.12844474346500862,0.07326667105386214,0.04232457353476761,0.15409849772772105,0.8186510949928674,0.07103278919710933,0.03577201371223807,0.04082853339831697,0.052158277470217736,0.03574208902117127,0.1586679444202955,0.17867992653901477
0.295,0.13103941024296095,0.07410565346432979,0.04243586603380274,0.15174038178907592,0.8209935742978741,0.07122585611945638,0.03562693183317974,0.04088924961390064,0.052846621397128674,0.035838603517653944,0.1558309871757035,0.17124334650813083
0.296,0.13365036115294524,0.07494860303618636,0.04255052655931154,0.14938332008941446,0.8231540166257868,0.07141092362521982,0.035484509965626,0.040948299974206,0.05353372524125123,0.035936600439541236,0.15297747846057655,0.1639363228742389
0.297,0.13627654656388524,0.07579514562278725,0.042668591477983075,0.14702842083108367,0.8251318524571025,0.07158780052540539,0.035344960939753194,0.04100559140271489,0.05421898500188916,0.03603586315080912,0.15010969472847605,0.156761829691008
0.298,0.13891690507083326,0.07664489905368843,0.04279009406283803,0.1446767904686283,0.8269266687053181,0.0717563034091054,0.03520848707843645,0.04106103300565836,0.05490179105535129,0.03613617592205025,0.14722992232254387,0.14972267448310253
0.299,0.14157036475404897,0.07749747351359208,0.042915064368203665,0.14232953233702964,0.8285382092165093,0.07191625699359262,0.03507528012096255,0.041114536317555926,0.0555815287602642,0.036237324206102164,0.1443404553857702,0.14282149728771035
0.3,0.14423584443896645,0.07835247193162942,0.04304352911157012,0.139987745272525,0.8299663750168116,0.07206749445578053,0.0349455211628521,0.04116601554374183,0.05625757907780239,0.03633909490808144,0.14144359377404675,0.13606076994449517
0.301,0.14691225495230353,0.07920949038053994,0.043175511562634064,0.13765252223182023,0.8312112243154751,0.07220985774419662,0.03481938061137408,0.041215387798864515,0.05692931920634328,0.03644127664920509,0.13854164097651556,0.1294427956298508
0.302,0.14959850036933617,0.08006811848540216,0.043311031439748945,0.13532494891520802,0.8322729722744076,0.07234319787103892,0.03469701815635126,0.041262573340291306,0.05759612323014731,0.03654366002368293,0.13563690204756193,0.12296970863112015
0.303,0.15229347924714978,0.08092793984161593,0.043450104813903566,0.13300610239888552,0.8331519905580472,0.07246737518427877,0.03457858275607631,0.04130749579546974,0.05825736278167059,0.03664603784797318,0.1327316815546455,0.11664347435633556
0.304,0.15499608583841007,0.0817885324418959,0.043592744020280814,0.1306970497813344,0.8338488066796462,0.07258225962007937,0.03446421263814751,0.041350082382181755,0.058912407717123486,0.03674820540164155,0.1298282815461342,0.11046588957482585
0.305,0.15770521128021145,0.08264946911209746,0.043738957577448924,0.12839884684836703,0.8343641031613709,0.07268773093598334,0.03435403531498541,0.04139026412072488,0.05956062680495606,0.036849960659027195,0.1269289995433344,0.1044385828837329
0.306,0.16041974475269527,0.08351031795566737,0.04388875011423499,0.12611253676098763,0.8346987165258556,0.07278367892535144,0.03424816761383488,0.04142797603703259,0.060201388426858,0.03695110451091007,0.12403612656073809,0.09856301539531181
0.307,0.16313857460237588,0.08437064280644087,0.04404212230427862,0.12383914876992115,0.8348536361361228,0.07287000361345625,0.03414671572084032,0.04146315735589826,0.06083406129092352,0.037051440975437375,0.12115194515837602,0.09284048163948605
0.308,0.16586058942525334,0.08523000368946626,0.04419907080830276,0.12157969696017668,0.8348300028990285,0.07294661543546081,0.034049775238833464,0.041495751683560074,0.06145801515649052,0.03715077739761665,0.11827872752990137,0.0872721106759637
0.309,0.16858467910503913,0.08608795728945987,0.04435958822404714,0.11933517902874338,0.8346291078452904,0.07301343539637987,0.03395743125833691,0.04152570717900245,0.06207262157007898,0.03724892463680233,0.11541873362973218,0.08185886740997783
0.31,0.17130973580212713,0.08694405742657181,0.044523663043838646,0.11710657509809749,0.8342523905969709,0.07307039521304128,0.03386975844132509,0.041552976713498335,0.06267725461182708,0.03734569724160703,0.11257420934234105,0.07660155410561799
0.311,0.17403465488936798,0.08779785553915502,0.04469127961974399,0.11489484656799698,0.8337014377318339,0.07311743743804731,0.03378682111725447,0.04157751801790849,0.0632712916517674,0.03744091361189044,0.10974738469655576,0.07150081209059082
0.312,0.1767583358312475,0.08864890117322644,0.044862418136229036,0.11270093500766581,0.8329779810529503,0.07315451556585988,0.03370867339098089,0.04159929381741417,0.06385411411522253,0.03753439614753675,0.10694047212748856,0.06655712364622014
0.313,0.17947968300340564,0.08949674247817364,0.04503705459023766,0.11052576109030547,0.8320838957711136,0.07318159412132201,0.033635359262103606,0.04161827195325347,0.0644251082566275,0.0376259713840058,0.1041556647884949,0.061770814076296324
0.314,0.18219760644996572,0.09034092670812278,0.04521516077847978,0.10837022357151702,0.8310211986063762,0.07319864873106291,0.03356691275534572,0.041634425491168275,0.06498366594112144,0.03771547011473802,0.10139513491532184,0.0571420539482884
0.315,0.1849110225766283,0.09118100072815383,0.045396704291728776,0.10623519831312876,0.8297920458134532,0.07320566617835962,0.03350335806159508,0.04164773281612547,0.06552918543330925,0.037802727500630254,0.09866103224425618,0.05267086150016813
0.316,0.1876188547780258,0.09201651152442972,0.045581648515865616,0.10412153735358473,0.8283987311343123,0.07320264444202843,0.03344470968923027,0.04165817771298897,0.0660610721926593,0.03788758316686485,0.09595548248587227,0.04835710520597961
0.317,0.1903200339982135,0.09284700671708444,0.04576995263934628,0.10203006802598998,0.8268436836803379,0.07318959271991685,0.033390972625410444,0.04166574943273233,0.06657873967496619,0.03796988128746516,0.09328058585558023,0.04420050649307573
0.318,0.19301349922368632,0.09367203507464392,0.04596157166682763,0.09996159212454224,0.8251294657457652,0.07316653143731741,0.03334214250699246,0.04167044274378375,0.06708161013931857,0.03804947065787497,0.0906384156620161,0.040200642603897045
0.319,0.19569819790879414,0.09449114702848349,0.04615645643865654,0.09791688511998588,0.8232587705535352,0.0731334922406553,0.03329820580073668,0.041672257968069455,0.0675691154598558,0.03812620475598517,0.08803101695396222,0.03635694959496014
0.32,0.19837308633405634,0.09530389518571403,0.04635455365586834,0.09589669542436169,0.8212344199339741,0.07309051797647509,0.03325913999247811,0.041671201001325466,0.06804069794165317,0.0381999417918919,0.08546040522631472,0.032668725465792206
0.321,0.20103712989847028,0.09610983483860763,0.04655580591027582,0.09390174370521966,0.8190593619354902,0.07303766265584051,0.03322491378496307,0.04166728331734586,0.06849581113989599,0.03827054474688138,0.08292856518529963,0.0291351334104116
0.322,0.20368930334740865,0.09690852446849026,0.04676015171917748,0.09193272224922314,0.8167366683648566,0.07297499140403549,0.03319548730409992,0.041660521955980516,0.06893392068149794,0.038337881402105554,0.08043744957293782,0.025755205183978305
0.323,0.20632859093815323,0.09769952624189979,0.04696752556398414,0.0899902943750944,0.8142695322528987,0.0729025803954024,0.03317081231337823,0.04165093949494137,0.06935450508812815,0.03840182435761109,0.07798897805048081,0.02252784457720956
0.324,0.2089539865453874,0.0984824064967,0.04717785793206465,0.08807509389590377,0.8116612652392273,0.07282051677296947,0.033150832436228614,0.041638564005616455,0.06975705659953367,0.0384622510424464,0.07558503614043348,0.01945183099121076
0.325,0.21156449370890298,0.09925673621599272,0.04739107536097525,0.0861877246307372,0.8089152948674008,0.07272889855239456,0.033135483386058484,0.04162342899321336,0.07014108199590657,0.038519043716695664,0.07322747422650545,0.01652582310537985
0.326,0.21415912562562897,0.10002209148776371,0.047607100484173596,0.08432875996581145,0.8060351617794979,0.07262783450961093,0.03312469320376374,0.04160557332169643,0.07050610341792858,0.03857208946623207,0.0709181066108144,0.013748362631085115
0.327,0.216736905087724,0.10077805394844319,0.047825852077310285,0.0824987424650741,0.8030245167970999,0.07251744405159949,0.03311838250245843,0.041585041124012706,0.07085165918299499,0.03862128019104783,0.06865871062743788,0.01111787814380297
0.328,0.21929686436856324,0.10152421120872045,0.04804724510415351,0.08069818353012333,0.799887117874113,0.07239785706973868,0.03311646471923533,0.041561881698125434,0.07117730459597488,0.03866651258799879,0.06645102581139127,0.008632688986448067
0.329,0.22183804505879604,0.10226015726007757,0.04827119076123725,0.07892756310917806,0.7966268269060987,0.07226921377538442,0.03311884637371464,0.04153614938943694,0.07148261275268182,0.03870768812881673,0.0642967531219486,0.006291009236601977
0.33,0.22435949785559306,0.10298549286057308,0.048497596520323656,0.07718732945460169,0.79324760638051,0.07213166451731112,0.03312542733313529,0.04150790346026932,0.07176717533415145,0.038744713034277366,0.06219755421908618,0.004090951730483419
0.331,0.22686028230932714,0.10369982589836428,0.04872636616786088,0.07547789892840615,0.789753515852469,0.07198536958089018,0.033136101083685,0.04147720794710213,0.07203060338967451,0.0387774982454442,0.060155050791796706,0.002030532136454834
0.332,0.22933946653312723,0.10440277173149876,0.048957399840778994,0.07379965585498732,0.7861487082317384,0.07183049896884731,0.03315075500775877,0.04144413150648949,0.07227252810646233,0.038805959392837215,0.05817082393678669,0.00010767307104931144
0.333,0.23179612688176002,0.10509395350264246,0.04919059405812453,0.07215295242038655,0.7824374258683334,0.0716672321637009,0.03316927066677007,0.04140874725059665,0.07249260156364588,0.038830016764370714,0.056246413586072526,0.001679791749507858
0.334,0.23422934760695172,0.10577300242773457,0.049425841748320876,0.07053810861729656,0.7786239964271465,0.0714957578720721,0.03319152408917415,0.041371132573410886,0.07269049746827703,0.03884959527273761,0.05438331798179926,0.0033341133291552305
0.335,0.23663822049659225,0.10643955805807018,0.049663032272067684,0.06895541223504763,0.774712828545783,0.07131627375136866,0.033217386063334194,0.04133136896869925,0.07286591187088133,0.03886462442289141,0.052582993196552075,0.0048576231899967225
0.336,0.23902184450514133,0.1070932685158366,0.04990205144120909,0.06740511889375159,0.7707084072743204,0.07112898611953006,0.033246722434820304,0.04128954184073979,0.07301856385813517,0.0388750382801512,0.05084685269732396,0.0062527291550754935
0.337,0.24137932538262982,0.10773379070372234,0.050142781534072346,0.06588745212169386,0.7666152892997997,0.07093410964890227,0.03327939440775902,0.04124574030878363,0.07314819622022757,0.038880775439329086,0.04917626695116632,0.007521911122330703
0.338,0.24370977530940097,0.10836079048977033,0.05038510130796275,0.0644026034749771,0.7624380979610605,0.07073186704544905,0.0333152588497972,0.04120005700610748,0.0732545760905556,0.03888177899529028,0.047572563070488655,0.008667716836035988
0.339,0.24601231254365674,0.1089739428689761,0.05062888600965487,0.06295073269840949,0.7581815180608753,0.0705224887147519,0.033354168600144035,0.04115258787444685,0.07333749555550459,0.03887799651513915,0.04603702449580594,0.00969275766170811
0.34,0.24828606108864934,0.10957293210349948,0.05087400738479206,0.06153196792658245,0.753850290483106,0.07030621241620987,0.03339597278021149,0.04110343195447839,0.07339677223213772,0.038869380012237366,0.044570890713719745,0.010599704370408492
0.341,0.25053015038612425,0.11015745184353694,0.05112033368715763,0.06014640592420866,0.7494492066236143,0.0700832829068695,0.03344051710617802,0.04105269117297442,0.07343224981173126,0.03885588592214098,0.04317535700783409,0.01139128293807728
0.342,0.25274371504234394,0.11072720523096469,0.05136772968881464,0.05879411236493488,0.7449831026446535,0.06985395157606392,0.033487644202924195,0.041000470127163874,0.07344379856718353,0.038837475080443475,0.0418515742403811,0.012070270365439716
0.343,0.2549258945927186,0.11128190498783404,0.05161605669208188,0.05747512214799968,0.740456853562867,0.06961847607200251,0.033537193918654284,0.040946875866824536,0.07343131582257258,0.03881411270251387,0.040600648662359656,0.012639490523824928
0.344,0.257075833310692,0.11182127349171439,0.05186517254416918,0.056189439752245635,0.7358753671807234,0.06937711992119742,0.033589003639613424,0.04089201767456075,0.07339472638318416,0.03878576836501917,0.03942364175013777,0.013101810032004864
0.345,0.2591926800660259,0.11234504283972399,0.052114931655303315,0.054937039627015107,0.731243577870761,0.06913015214155971,0.033642908604290186,0.04083600684472211,0.07333398292459269,0.038752415989168294,0.03832157006646297,0.013460134169033184
0.346,0.2612755882370032,0.11285295490293816,0.05236518502103251,0.0537178666193909,0.7265664402216376,0.0688778468498562,0.0336987422165122,0.04077895646131058,0.07324906633937535,0.03871403382553405,0.03729540514399231,0.013717402827742529
0.347,0.2633237156804412,0.11334476137255683,0.052615780249424,0.052531836437137394,0.7218489225552283,0.06862048286406922,0.033756336356826774,0.0407209811752907,0.07313998604028074,0.03867060444046203,0.036346073389459624,0.013876586513521688
0.348,0.26533622476261415,0.11382022379912389,0.05286656159386204,0.05137883614658877,0.7170960003242164,0.06835834330104792,0.03381552169154795,0.040662196981585005,0.07300678021881883,0.03862211470400118,0.035474456006643965,0.013940682392651317
0.349,0.2673122824537245,0.11427911362573541,0.05311736999211293,0.05025872470460728,0.7123126494006096,0.06809171516960337,0.03387612797875372,0.04060272099603687,0.07284951605846665,0.038568555779471075,0.03468138893640437,0.013912710394372483
0.35,0.26925106048782343,0.11472121221601424,0.053368043112212764,0.04917133352359583,0.7075038392669871,0.0678208889590708,0.033937984370571155,0.040542671232610024,0.0726682899020514,0.03850992311473984,0.03396766281199697,0.013795709370686669
0.351,0.27115173558957495,0.11514631087725259,0.05361841540579225,0.04811646706842278,0.7026745261243104,0.06754615822313338,0.03400091971096373,0.0404821663810373,0.07246322737319169,0.03844621643536667,0.033334022928006975,0.01359273331762525
0.352,0.2730134897685937,0.11555421087888082,0.05386831816934857,0.04709390348398288,0.6978296459324134,0.06726781915851836,0.03406476282832621,0.040421325585201076,0.0722344834521504,0.03837743973973938,0.032781169221200425,0.013306847661583195
0.353,0.2748355106816218,0.1159447234661237,0.05411757961395296,0.04610339525209596,0.6929741074015431,0.06698617017800607,0.03412934282220764,0.04036026822257729,0.07198224250655096,0.038303601296306625,0.032309756261680485,0.0129411256141968
0.354,0.2766169920625069,0.11631766986858147,0.054366024943851815,0.04514466987641276,0.6881127849554638,0.06670151147703071,0.034194489343632686,0.04029911368514688,0.07170671827767551,0.03822471364308298,0.03192039325280496,0.012498644598945551
0.355,0.27835713421962094,0.11667288130331661,0.05461347644417634,0.04421743059409728,0.6832505116883242,0.06641414459325652,0.034260032868641585,0.04023798116214815,0.07140815382300707,0.0381407935895332,0.031613644038386714,0.011982482752604044
0.356,0.28005514460014636,0.11701019897209268,0.05485975357793222,0.04332135711312172,0.6783920723384049,0.0661243719585911,0.03432580496482067,0.040176989425114766,0.07108682141571225,0.03805186222110472,0.03139002711577685,0.01139571550437899
0.357,0.2817102384201955,0.1173294740525089,0.05510467309232786,0.0424561063741455,0.6735421963020161,0.0658324964434447,0.03439163855074319,0.04011625661559701,0.07074302240154694,0.03795794490659742,0.03125001565346959,0.010741412235468588
0.358,0.28332163935957866,0.11763056768295028,0.05534804913441963,0.041621313336057675,0.6687055507099648,0.06553882089332891,0.03445736814829655,0.04005590003600224,0.07037708701357503,0.03785907130870052,0.031194037512013262,0.0100226330215494
0.359,0.2848885803196455,0.11791335094155292,0.05558969337613686,0.040816591784381795,0.663886733587652,0.06524364765812475,0.034522830128028384,0.039996035944045466,0.06998937414480084,0.03775527539795921,0.03122247526712017,0.009242425460650119
0.36,0.2864103042424977,0.11817770481952314,0.055829415148706346,0.040041535161796545,0.6590902671181823,0.06494727811473415,0.03458786294751793,0.039936779351235324,0.06958027107880989,0.03764659547039264,0.03133566623405081,0.008403821588574382
0.361,0.28788606498954894,0.11842352018923383,0.05606702158652393,0.03929571741995371,0.6543205910266577,0.06465001218390737,0.03465230738297686,0.03987824382584261,0.06915019317848387,0.03753307416901258,0.03153390249249734,0.007509834883954335
0.362,0.2893151282772473,0.11865069776747779,0.05630231778047977,0.03857869389183374,0.649582056102969,0.06435214784244017,0.03471600675411634,0.039820541300764005,0.0686995835330303,0.037414758509288736,0.03181743091122384,0.006563457364754085
0.363,0.2906967726675697,0.11885914807422535,0.056535106940654854,0.03789000218369239,0.6448789178798819,0.06405398063206273,0.034778807142430236,0.039763781886675835,0.06822891256378513,0.03729169990866671,0.032186453171768915,0.005567656777892331
0.364,0.29203029061092806,0.1190487913871036,0.056765190568188836,0.03722916308567161,0.640215330482406,0.06375580316657453,0.034840557603078845,0.03970807369083624,0.06773867758947644,0.03716395422001947,0.032641125790541854,0.004525373883332229
0.365,0.29331498953928703,0.11921955769183126,0.05699236863604605,0.036595681500113074,0.6355953406635168,0.06345790463895334,0.03490111037050135,0.03965352264187642,0.06722940235178898,0.0370315817689367,0.03318156013875243,0.003439519833828076
0.366,0.2945501930073792,0.11937138662871381,0.057216439778245066,0.03598904738660378,0.6310228820401852,0.06316057033024186,0.034960321057954435,0.039600232320939205,0.06670163650217448,0.03689464739466755,0.033807822459627185,0.0023129736513143174
0.367,0.295735241880149,0.11950422743527238,0.0574372014870465,0.03540873672277285,0.6265017695426407,0.06286408112216613,0.0350180488510987,0.03954830379951012,0.06615595505084466,0.036753220494491014,0.03451993388253242,0.0011485798007548258
0.368,0.2968694955645104,0.11961803888506949,0.057654450317577675,0.034854212479923256,0.6220356940888702,0.06256871301528259,0.03507415669576746,0.03949783548428599,0.06559295777889648,0.036607375071242586,0.03531787043361311,5.085413772450528e-05
0.369,0.29795233328339377,0.1197127892228619,0.057867982099356084,0.03432492561246958,0.617628217495082,0.062274736654479995,0.03512851148000898,0.03944892296932651,0.065013268614513,0.036457189783747616,0.03620156304268506,0.0012825596978296137
0.37,0.2989831553899158,0.11978845609634964,0.05807759215430771,0.03382031606015727,0.6132827676313545,0.0619824168634767,0.03518098421046095,0.0394016588956689,0.06441753497408943,0.03630274799985733,0.03717089754634562,0.0025438096566351392
0.371,0.2999613847193292,0.11984502648496635,0.05828307552084176,0.03333981376191498,0.6090026338300695,0.061692012189798556,0.03523145018307443,0.039356132818468524,0.06380642706919552,0.0361441378518619,0.03822571468746355,0.003831920064258575
0.372,0.3008864679763405,0.1198824966262275,0.058484227183586854,0.03288283968025461,0.6047909625531696,0.06140377446165254,0.03527978914816988,0.039312431081572285,0.06318063718035351,0.0359814522939831,0.039365810111397545,0.005144252173370697
0.373,0.3017578771552411,0.11990087194024861,0.05868084230831082,0.032448806834960146,0.6006507533228158,0.06111794835800287,0.03532588546973426,0.03927063669936838,0.0625408788986607,0.03581478916164259,0.040590934359505663,0.006478214268390127
0.374,0.3025751109899106,0.11990016695308262,0.058872716481505626,0.03203712134490588,0.596584854918612,0.06083477099315231,0.03536962827887872,0.03923082924559331,0.06188788633656319,0.03564425123209349,0.04190079286053175,0.007831263394330887
0.375,0.30333769643016356,0.11988040521957966,0.05905964595407063,0.031647183476797264,0.5925959618431353,0.06055447151706791,0.035410911621317986,0.039193084748709854,0.0612224133091551,0.035469946285915946,0.04329504592064162,0.009200906985501451
0.376,0.3040451901402893,0.11984161924639668,0.05924142788843429,0.031278388699594796,0.5886866110563603,0.060277270732786305,0.03544963459872608,0.039157475593413045,0.06054523248763553,0.03529198716877741,0.0447733087129231,0.01058470439438563
0.377,0.3046971800148456,0.1197838504158015,0.05941786060857826,0.030930128743468302,0.5848591789787085,0.060003380732146804,0.03548570150377944,0.039124070427849655,0.05985713452671207,0.03511049185278279,0.046335151267346227,0.011980268321332649
0.378,0.3052932867060913,0.11970714891096165,0.059588743852468797,0.030601792661976948,0.5811158787619459,0.05973300455120024,0.03551902194872248,0.039092934076119086,0.059158927167913156,0.03492558349666965,0.047980098462397175,0.013385266145840052
0.379,0.3058331651568378,0.11961157364349745,0.059753879026561284,0.03029276789623988,0.5774587578270852,0.05946633584644415,0.03554951098712131,0.03906412745573012,0.05845143432088897,0.03473739050403459,0.0497076300198054,0.014797421160289084
0.38,0.30631650613219524,0.11949719218425839,0.05991306946218894,0.03000244133974065,0.5738896956690304,0.059203558593058515,0.035577089228564625,0.03903770749985512,0.05773549512480634,0.0345460465787441,0.051517180503977175,0.016214513707187485
0.381,0.3067430377436344,0.11936408069832637,0.06006612067379891,0.0297302004024002,0.5704104019286912,0.05894484680606713,0.03560168294595801,0.039013727084331574,0.057011962991895704,0.03435169077671158,0.05340813932807361,0.0176343822210008
0.382,0.3071125269589644,0.11921232388538473,0.06021284061902693,0.029475434072468158,0.5670224147345365,0.05869036428530983,0.03562322417520096,0.03899223495959789,0.05628170463519061,0.03415446755316141,0.055379850768752396,0.01905492417591153
0.383,0.307424781092305,0.11904201492652593,0.060353039960608416,0.029237533974823687,0.5637270993167756,0.0584402643848772,0.035641650806934176,0.03897327568773476,0.05554559908229612,0.03395452680457666,0.05743161399204323,0.020474096940951834
0.384,0.3076796492686608,0.11885325543843112,0.06048653233020219,0.02901589542415338,0.560525646898011,0.05819468980753287,0.035656906670194194,0.038956889584837937,0.05480453667706174,0.03375202390449938,0.05956268309294472,0.021889918544124896
0.385,0.3078770238579854,0.11864615543558799,0.060613134594237075,0.028809918471553907,0.5574190738644661,0.05795377242450335,0.03566894160769114,0.038943112668935145,0.05405941807095197,0.03354711973245812,0.06177226715168399,0.023300468347249297
0.386,0.30801684187359274,0.11842083330098113,0.06073266712191216,0.028619008943185288,0.5544082212213666,0.05771763312080251,0.03567771154254659,0.03893197661353825,0.05331115320592258,0.033339980695284877,0.06405953030970646,0.02470388763340422
0.387,0.3080990863297111,0.11817741576536782,0.06084495405543057,0.028442579469511804,0.5514937543355751,0.057486381666299186,0.03568317853628766,0.03892350870692412,0.052560660290643574,0.03313077874021343,0.06642359186852576,0.026098380108850898
0.388,0.3081237875528444,0.11791603789504355,0.060949823582490924,0.02828005050386051,0.5486761629681415,0.05726011661256037,0.03568531083798443,0.03891773181718104,0.05180886477181617,0.032919691359181796,0.06886352641463812,0.027482212321518696
0.389,0.30809102444176534,0.11763684308774802,0.0610471082109561,0.028130851328849626,0.5459557615994743,0.05703892521561766,0.03568408292444805,0.038914664363031454,0.05105669830224022,0.032706901583839494,0.07137836397362265,0.028853713998076735
0.39,0.3080009256709361,0.11733998307612312,0.061136645045573264,0.02799442104934075,0.5433326900499907,0.05682288338472208,0.03567947553143983,0.038914320290446336,0.0503050977072339,0.032492597970719045,0.07396709019645124,0.03021127830177267
0.391,0.307853670832099,0.11702561793802403,0.06121827606655219,0.027870209570462767,0.5408069143991292,0.05661205565713068,0.03567147567593025,0.03891670905507293,0.049555003950849524,0.03227697457608121,0.07662864658082831,0.03155336201327024
0.392,0.3076494915089474,0.11669391611280654,0.061291848409730294,0.027757678559339874,0.5383782282054101,0.05640649519897264,0.0356600766694556,0.03892183561057552,0.0488073611032462,0.03206023091984774,0.07936193073021253,0.03287848563673005
0.393,0.3073886722802042,0.11634505442264818,0.06135721464790564,0.02765630238905405,0.5360462540297678,0.05620624383220584,0.035645278122644106,0.03892970040300233,0.04806311531048297,0.03184257193804869,0.08216579665282639,0.03418523343354976
0.394,0.3070715516468503,0.1159792180978073,0.06141423307284499,0.027565569063520014,0.5338104452640398,0.056011332087770135,0.03562708594099589,0.038940299371349935,0.0473232137678547,0.031624207923115565,0.08503905510285226,0.035472253386097136
0.395,0.3066985228797287,0.11559660080469522,0.06146276797737219,0.02748498112188776,0.5316700882658336,0.05582177928501334,0.03560551231203642,0.038953623954524876,0.04658860369774731,0.031405354451332315,0.08798047396563631,0.036738257093869464
0.396,0.30627003478379206,0.11519740467538582,0.0615026899368292,0.027414056521200523,0.5296243047999006,0.055637593637496395,0.035580575683899815,0.03896966110487184,0.045860231332896254,0.031186232296734208,0.0909887786886521,0.03798201960445416
0.397,0.3057865923751742,0.11478184033705294,0.06153387608913481,0.02735232949598844,0.5276720547847932,0.055458772385292614,0.03555230073542436,0.03898839330851592,0.04513904090575985,0.03096706733079688,0.09406265275966742,0.039202379181621824
0.398,0.3052487574666381,0.11435012693961313,0.06155621041250548,0.027299351393501852,0.5258121393419117,0.05528530195383976,0.035520718337762616,0.039009798612677254,0.044425973644721915,0.030748090407190596,0.09720073823337343,0.04039823701274447
0.399,0.30465714915614517,0.11390249217963865,0.06156958399970293,0.02725469148327759,0.5240432041422683,0.055117158139401226,0.03548586550751465,0.039033850660079826,0.043721966777748866,0.03052953723100919,0.10040163630754176,0.04156855685774414
0.4,0.3040124442124868,0.1134391723183791,0.06157389532757113,0.02721793773974218,0.5223637430444941,0.05495430632119302,0.035447785351297605,0.03906051873045644,0.04302795254408279,0.03031164821183114,0.10366390794952618,0.042712364641606125
0.401,0.30331537735099695,0.11296041219150171,0.06156905052039106,0.027188697596543035,0.5207721020158248,0.054796701700104554,0.035406527001625755,0.03908976778912164,0.04234485721456567,0.030094668300165682,0.10698607457376819,0.04382874799256879
0.402,0.30256674139195733,0.11246646520786918,0.06155496360559864,0.027166598671394204,0.5192664833258633,0.054644289563881225,0.03536214554398374,0.03912155854240437,0.041673600121180536,0.029878846806825853,0.11036661877082815,0.04491685572797424
0.403,0.30176738729393165,0.11195759333462652,0.06153155676026831,0.02715128946028396,0.5178449500011559,0.054497005578484047,0.03531470193484336,0.039155847499846776,0.041015092696341564,0.029664437204926723,0.11380398508823444,0.04597589728986795
0.404,0.30091822405440954,0.11143406706590951,0.06149876054698802,0.027142439999928512,0.5165054305267868,0.05435477610514694,0.03526426291045469,0.03919258704285459,0.04037023752250179,0.029451696914261454,0.11729658086342229,0.047005142132377054
0.405,0.30002021847027616,0.1108961653728022,0.06145651413771694,0.027139742497369026,0.5152457237794987,0.05421751854258426,0.03521090088614656,0.03923172549965568,0.03973992739261248,0.029240887067913925,0.12084277710877962,0.04800391906293613
0.406,0.2990743947507891,0.11034417563257642,0.06140476552436026,0.027142911925678713,0.5140635041752916,0.05408514169363266,0.03515469384592597,0.0392732072262956,0.039125044381885625,0.02903227226104077,0.1244409094487521,0.048971615539398716
0.407,0.2980818339759734,0.10977839353574208,0.061343471714882324,0.02715168658457956,0.51295632701305,0.05395754615562136,0.03509572522214617,0.039316972693476684,0.03852645893135676,0.02882612028182495,0.12808927910866225,0.04990767692498395
0.408,0.2970436733936566,0.1091991229696442,0.06127259891372959,0.02716582862484856,0.5119216339945801,0.053834624733700494,0.035034083765187164,0.0393629585791281,0.03794502894369949,0.028622701824711525,0.1317861539546913,0.050811605702992445
0.409,0.2959611055486941,0.10860667587773477,0.06119212268541054,0.027185124535315207,0.5109567589008066,0.05371626287631994,0.03496986340303994,0.03941109786665453,0.03738159889178248,0.02842229018606462,0.13552976958409008,0.05168296065300636
0.41,0.2948353772383003,0.10800137209357438,0.061102028100108306,0.027209385591169474,0.5100589334039182,0.05360233913211393,0.034903163090911696,0.039461319948857036,0.03683699894048534,0.028225160942495185,0.13931833046428904,0.05252135599029074
0.411,0.2936677882876996,0.10738353914882193,0.06100230986029248,0.02723844826236036,0.5092252929961159,0.05349272562731033,0.034834086650978036,0.039513550737582635,0.03631204408223386,0.02803159161210487,0.14315001111919995,0.05332646046998064
0.412,0.29245969014102635,0.10675351205444986,0.060892972407373035,0.02727217458081289,0.5084528830170774,0.05338728856280914,0.03476274260254033,0.03956771277911553,0.03580753328677753,0.027841861299025866,0.1470229573606721,0.05409799645755425
0.413,0.29121248426375407,0.10611163305470359,0.06077403000770812,0.027310452465271817,0.5077386647637591,0.053285888730077155,0.034689243982894434,0.03962372537532296,0.035324248665643605,0.027656250321593218,0.150935287562745,0.0548357389670094
0.414,0.28992762035486247,0.10545825135376335,0.060645506817438175,0.027353196002710557,0.5070795216673929,0.053188382044862446,0.03461370815926451,0.03968150471049722,0.03486295465182124,0.027475039824633653,0.15488509397617503,0.055539514667980745
0.415,0.2886065943691709,0.10479372281552794,0.060507436926009746,0.027400345685369778,0.5064722655232985,0.053094620097838593,0.03453625663213633,0.03974096398382643,0.034424397195129394,0.027298511376391926,0.15887044408066206,0.05620920086305025
0.416,0.28725094635228743,0.10411840963747265,0.060359864378401906,0.027451868602767805,0.505913642759495,0.053004450721180145,0.03445701483038069,0.03980201354727911,0.0340093029737569,0.02712694655068948,0.1628893819720944,0.05684472443631899
0.417,0.2858622580926819,0.10343267999988903,0.060202843176467784,0.02750775858818148,0.5054003407302456,0.05291771857009897,0.03437611189860561,0.039864561048685764,0.033618378622487,0.026960626494942765,0.1669399297821516,0.05744606077427991
0.418,0.2844421505976039,0.10273690769206861,0.060036437260016375,0.027568036319313118,0.5049289940210269,0.052834265718251824,0.034293680477227646,0.03992851157972179,0.03325230997811652,0.026799831484666366,0.1710200891275354,0.05801323265991655
0.419,0.28299228140147004,0.10203147171733498,0.059860720468429135,0.02763274937293727,0.5044961907516602,0.05275393226595964,0.034209856475790106,0.03999376782846656,0.0329117613426514,0.02664484046508182,0.1751278425860992,0.05854630914089362
0.42,0.28151434171701195,0.1013167558790881,0.059675776483662256,0.027701972233494746,0.5040984788648202,0.05267655696009698,0.034124778840103176,0.04006023023613675,0.03259737476490159,0.026495930580383492,0.17926115519697056,0.059045404372608
0.421,0.28001005344088986,0.10059314835021405,0.059481698755487776,0.027775806255484196,0.5037323723873978,0.05260197782439673,0.03403858931377701,0.04012779715770324,0.03230976934111358,0.026353376691251918,0.183417975981739,0.059510676436872946
0.422,0.27848116602678347,0.09986104122830446,0.0592785904097811,0.02785437957963158,0.5033943576529796,0.0525300327989371,0.033951432194742524,0.04019636502598988,0.03204954053515924,0.02621745088107702,0.18759623948340037,0.05994232613690843
0.423,0.27692945324007406,0.09912083007915835,0.05906656414067527,0.027937847002768194,0.5030808994748125,0.05246056038740431,0.03386345408732645,0.04026582851900018,0.03181725951882822,0.02608842195152507,0.19179386731945497,0.06034059576928447
0.424,0.27535670980870797,0.09837291347101247,0.05884574208736596,0.028026389801399758,0.5027884472600238,0.052393400310819856,0.03377480365045382,0.040336080730035605,0.031613472532633885,0.02596655490788568,0.19600876974522305,0.06070576787340362
0.425,0.2737647479848694,0.09761769250182956,0.058616255696383054,0.028120215509014477,0.502513441057049,0.05232839416634949,0.03368563134253339,0.04040701334027337,0.03143870026750866,0.025852110434784956,0.20023884722296956,0.061038163959052226
0.426,0.2721553940320364,0.0968555703217806,0.05837824557011706,0.028219557647323097,0.5022523175288762,0.052265386090026025,0.03359608916354729,0.040478516793313046,0.03129343726777059,0.025745344362770605,0.20448199199217723,0.061338143212528395
0.427,0.2705304846521164,0.09608695165280744,0.05813186130232957,0.028324675411583056,0.5020015158450492,0.05220422342215318,0.033506330394835165,0.04055048047136003,0.03117815135564337,0.025646507126350734,0.2087360896360204,0.06160610118193076
0.428,0.26889186336783827,0.09531224230700652,0.057877261301399,0.02843585331029101,0.5017574834858378,0.0521447573743395,0.03341650933709409,0.04062279287272654,0.031093283077690288,0.02555584321419624,0.2129990206392477,0.06184246844220254
0.429,0.26724137687568095,0.09453184870536445,0.057614612601976506,0.02855340075962801,0.5015166819527108,0.052086843696981744,0.03332678104697171,0.040695341790444144,0.031039245173418155,0.025473590612218665,0.21726866193314792,0.06204770924078439
0.43,0.2655808713848416,0.09374617739821266,0.05734409066582508,0.028677651633008963,0.5012755923801253,0.052030343346053616,0.03323730107269782,0.04076801449177712,0.031016422066400654,0.025399980240420277,0.22154288842391887,0.062222320124761296
0.431,0.26391218895772517,0.0929556345887343,0.05706587917254291,0.02880896376622265,0.5010307210443958,0.051975123147960246,0.033148225188971314,0.040840697898630124,0.031025169378223014,0.02533523538441695,0.225819574501779,0.06236682855074772
0.432,0.2622371638673971,0.09216062566083431,0.056780169800997954,0.028947718418665884,0.5007786047659055,0.05192105646113012,0.033059709131334894,0.04091327876877651,0.031065813465653746,0.02527957112272599,0.230096595529077,0.062481791478919614
0.433,0.260557618987104,0.0913615547126317,0.05648716200214035,0.029094319691216713,0.5005158162009035,0.051868023832946385,0.032971908330217604,0.040985643878035154,0.031138650981486438,0.02523319375094972,0.23437182930684153,0.06256779395288653
0.434,0.25887536222639423,0.09055882409687445,0.056187062763956575,0.02924919390131538,0.500238969019344,0.05181591365058911,0.03288497764476028,0.04105768020347632,0.031243948459598523,0.025196300203985885,0.2386431575201224,0.06262544766741833
0.435,0.2571921830276228,0.08975283396955344,0.05588008636929709,0.029412788915860865,0.49994472296500436,0.05176462278437321,0.03279907109654989,0.04112927510779748,0.031381941924828426,0.025169077477480404,0.24290846716321113,0.06265538952615168
0.436,0.2555098489358822,0.0889439818480589,0.055566454147365246,0.029585573442615455,0.4996297887938744,0.051714057222203694,0.032714341603362486,0.04120031652487144,0.03155283652829402,0.0251517020497382,0.24716565194636858,0.06265828019170759
0.437,0.25383010225454566,0.08813266218022128,0.05524639421956015,0.029768036280848946,0.4992909330861559,0.05166413269391727,0.032630940713010405,0.04127069314651869,0.03175680620891429,0.02514433930542924,0.25141261368582496,0.06263480263063588
0.438,0.2521546567978461,0.08731926592572077,0.05492014124038747,0.02996068553213413,0.4989249829267373,0.051614775284181846,0.032549018337378284,0.041340294610415114,0.031993993381820365,0.025147142962542012,0.25564726367882734,0.0625856606557332
0.439,0.25048519475100306,0.08650418015121866,0.054587936133909394,0.03016404777219231,0.4985288304491562,0.05156592203279267,0.032468722486830325,0.041409011689076354,0.03226450865443062,0.02516025450401936,0.25986752406526564,0.06251157746828713
0.44,0.24882336364757077,0.08568778764069891,0.05425002582611995,0.030378667184961055,0.498099437238861,0.051517521521006,0.03239019900520796,0.0414767364797366,0.032568430570925934,0.025183802615567977,0.26407132917720055,0.06241329420288838
0.441,0.24717077347281846,0.08487046652234663,0.05390666297356946,0.030605104660028127,0.49763383859224414,0.051469534442738364,0.03231359130581307,0.04154336259499141,0.03290580538573495,0.02521790263102429,0.26825662687726026,0.06229156847740927
0.442,0.2455289939011427,0.08405258991317265,0.05355810568842655,0.030843936854831812,0.497129147628339,0.05142193415931349,0.0322390401088673,0.041608785353879074,0.03327664686669592,0.02526265598664,0.2724213798865955,0.062147172950805823
0.443,0.24389955167478028,0.08323452558245852,0.05320461726018427,0.031095755222919172,0.49658255924957145,0.05137470723650239,0.032166683181146495,0.04167290197311175,0.03368093612846587,0.025318149685544234,0.27656356710251706,0.06198089389118738
0.444,0.2422839281303771,0.08241663563483828,0.05284646587411663,0.03136116500967982,0.4959913539472903,0.05132785396248244,0.032096655078534854,0.04173561175806995,0.034118621496763264,0.025384455773602092,0.28068118490538146,0.061793529756656945
0.445,0.24068355687922874,0.0815992762136116,0.05248392432656351,0.03164078421686407,0.4953529014466426,0.05128138884539127,0.032029086892362585,0.0417968162930851,0.03458961840405643,0.025461630827789877,0.2847722484536026,0.06158588979112317
0.446,0.23909982164638655,0.08078279722465985,0.05211726973698559,0.03193524253723794,0.49466466418439453,0.051235341089125315,0.03196410600043909,0.04185641963052155,0.03509380931718597,0.025549715458170145,0.28883479296507886,0.061358792637304906
0.447,0.23753405427315713,0.07996754208101892,0.0517467832567436,0.03224518026060148,0.4939242006123981,0.051189755046158636,0.03190183582365405,0.04191432847816119,0.03563104369751172,0.025648733824508513,0.2928668749827908,0.061113064968836124
0.448,0.23598753288696286,0.07915384746804405,0.051372749774458555,0.032571247152511924,0.4931291683190665,0.05114469064628366,0.0318423955890908,0.04197045238443018,0.036201137994011943,0.025758693168565584,0.296866573622169,0.06084954014330152
0.449,0.23446148024206553,0.07834204312875176,0.050995457617792436,0.032914101306922905,0.49227732696084553,0.05110022380040553,0.03178590010052904,0.042024703921077336,0.036803875669823016,0.025879583363071133,0.30083199179770054,0.06056905687781745
0.45,0.23295706223413773,0.07753245166891372,0.05061519825146476,0.033274407974051026,0.4913665409955182,0.051056446778549966,0.03173245951718118,0.04207699886295663,0.03743900726261704,0.026011376478400912,0.304761257426365,0.060272457948704165
0.451,0.2314753865912431,0.07672538838120319,0.050232265971381355,0.03365283836475907,0.49039478220927096,0.05101346856140083,0.03168217914145691,0.04212725636460349,0.03810625047915809,0.026154026367997962,0.3086525246055726,0.05996058891670784
0.452,0.2300175017434142,0.07592116108758908,0.04984695759470809,0.03405006843282997,0.4893601320301344,0.05097141516456428,0.03163515921649842,0.04217539913334011,0.03880529032428452,0.02630746827356953,0.31250397476352443,0.05963429687920729
0.453,0.22858439587260956,0.07512006999914159,0.04945957214585712,0.034466777636662047,0.4882607836213897,0.050930429934836534,0.03159149473410043,0.04222135359876637,0.039535779264473776,0.02647161845111905,0.31631381778017326,0.059294429250723195
0.454,0.22717699614442033,0.07432240759225311,0.04907041053834208,0.03490364768206984,0.48709504374960133,0.050890673817778585,0.03155127525356447,0.04226505007845629,0.04029733742605251,0.026646373818837603,0.32008029307761826,0.05894183257296485
0.455,0.22579616812244838,0.07352845850038897,0.04867977525260014,0.0353613612480271,0.4858613344230496,0.050852325595959515,0.031514584731990855,0.04230642293982959,0.04108955282801731,0.026831611627910038,0.32380167067943755,0.05857735135547158
0.456,0.2244427153657038,0.07273849942039931,0.048287970010015065,0.03584060069732957,0.48455819429752256,0.050815582097371345,0.03148150136630362,0.042345410757981344,0.04191198164934027,0.027027189157234115,0.32747625223909965,0.0582018269478258
0.457,0.22311737920892805,0.07195279903248758,0.04789529944349111,0.03634204677422006,0.48318427984770507,0.050780658373527104,0.0314520974472928,0.04238195646938059,0.04276414853054641,0.02723294343303838,0.3311023720376913,0.05781609644422341
0.458,0.22182083872494868,0.07117161793281046,0.047502068765031095,0.03686637729097964,0.4817383663037175,0.05074778784677089,0.03142643922581733,0.04241600752111675,0.043645546909228894,0.027448690974321174,0.33467839795119625,0.05742099162113965
0.459,0.22055371086755013,0.07039520857767848,0.04710858343086813,0.03741426580549274,0.4802193483535308,0.05071722242629428,0.031404586791229365,0.04244751601541818,0.044555639389082954,0.027674227565007477,0.3382027323870382,0.057017337908615705
0.46,0.2193165507924362,0.06962381523822823,0.04671514880474349,0.037986380291802846,0.47862624061328585,0.050689232592333704,0.03138659396197867,0.04247643884904974,0.04549385814188763,0.027909328053730777,0.3416738131894533,0.056605953395565546
0.461,0.21810985235311225,0.06885767396448553,0.04632206981996235,0.038583381805656,0.47695817786885164,0.050664107447943064,0.03137250818832775,0.042502737847155594,0.04645960534182107,0.028153746182067178,0.3450901145132069,0.05618764786933951
0.462,0.2169340487676917,0.06809701255776403,0.04592965064092635,0.03920592314717658,0.4752144150930615,0.0506421547377622,0.03136237046702573,0.0425263798910085,0.04745225363131475,0.028407214442207215,0.3484501476653763,0.05576322188952945
0.463,0.21578951345178896,0.06734205055052284,0.045538194324813756,0.039854647522794315,0.4733943272440834,0.05062370083314282,0.031356215267747706,0.04254733703916657,0.04847114661762187,0.028669443964877205,0.3517524619150796,0.05533346589591364
0.464,0.21467656101195137,0.06659299919297286,0.04514800248406728,0.04053018720860605,0.47149740885091124,0.05060909068302411,0.031354070471032634,0.04256558664135149,0.04951559939912951,0.028940124438450156,0.3549956452709015,0.054899159350254495
0.465,0.21359544839327632,0.0658500614458308,0.04475937495030999,0.041233162217362784,0.4695232733920208,0.05059868772998074,0.0313559573174246,0.04258111144436431,0.050584899120628794,0.029218924060051492,0.3581783252253024,0.054461069911530505
0.466,0.21254637617426217,0.06511343197883003,0.044372609440269495,0.04196417897119178,0.46747165247297856,0.050592873790869936,0.03136189036755243,0.042593899689209735,0.05167830555670507,0.02950548951942598,0.36129916946467866,0.05401995264410295
0.467,0.21152949000127388,0.06438329717468437,0.043988001224176544,0.0427238289822116,0.46534239480830664,0.05059204890145491,0.031371877472861354,0.042603945198551756,0.05279505172263377,0.02979944601627775,0.3643568865432477,0.05357654925827906
0.468,0.21054488215453113,0.06365983513829433,0.043605842797189806,0.04351268754306325,0.4631354650125027,0.05059663112440521,0.03138591975682503,0.042611247453552145,0.05393434451223077,0.03010039731177381,0.3673502265190682,0.053131587382724624
0.469,0.20959259323690904,0.06294321571110668,0.043226423554144036,0.04433131242945414,0.4608509422048738,0.05060705631995573,0.031404011606520864,0.0426158116591127,0.05509536536209037,0.03040792581483184,0.3702779815509869,0.052685779868194095
0.47,0.20867261397632003,0.062233600490581846,0.0428500294680602,0.04518024261666246,0.4584890184329984,0.05062377787854259,0.03142614067450981,0.04261764879661827,0.05627727094171843,0.03072159270386743,0.3731389864560836,0.052239824122122566
0.471,0.20778488713175813,0.06153114285480168,0.042476942772610674,0.046059997012015984,0.4560499969204523,0.050647266414760375,0.03145228789102743,0.042616775663370826,0.05747919386887664,0.03104093808460192,0.375932119227483,0.05179440147369299
0.472,0.20692930949255586,0.06083598799233265,0.04210744164871767,0.04697107320523203,0.45353429014561036,0.050678009421948306,0.03148242748650555,0.0426132148981176,0.058700243449530294,0.031365481184515,0.3786563015125383,0.05135017656909216
0.473,0.20610573395993018,0.06014827293754842,0.04174179991538238,0.04791394623843747,0.4509424177596862,0.05071651088687124,0.031516527024405015,0.04260699499223919,0.05993950644173083,0.031694720584493234,0.3813104990509742,0.05090779679676671
0.474,0.20531397169959525,0.05946812661159223,0.04138028672466248,0.048889067397672896,0.44827500435362455,0.05076329086407875,0.03155454744437913,0.0425981502863285,0.061196047842771086,0.03202813448813918,0.38389372207251776,0.05046789174261605
0.475,0.20455379435390134,0.05879566986917629,0.04102316626077195,0.04989686302758253,0.4455327770847254,0.05081888500967319,0.031596443115782975,0.04258672095200619,0.06246891169888841,0.03236518102923163,0.3864050256537094,0.05003107267511793
0.476,0.20382493630186124,0.058131015551363865,0.04067069744323368,0.05093773337106806,0.4427165631752352,0.05088384407456475,0.0316421619015155,0.042572752958957696,0.06375712193670122,0.03270529861774513,0.3888435100338633,0.04959793206056032
0.477,0.2031270969553651,0.05747426854438398,0.04032313363406529,0.05201205143574691,0.43982728729632226,0.05095873335756963,0.0316916452322444,0.04255629802726762,0.06505968321543083,0.03304790632482164,0.3912083208903466,0.04916904310853811
0.478,0.20245994308002907,0.056825525844656465,0.03998072234908301,0.05312016188919494,0.436865968851769,0.05104413211902637,0.031744828190998546,0.04253741356533809,0.06637558179875984,0.033392404306993896,0.3934986495731365,0.048744959348044424
0.479,0.20182311112924917,0.05618487663010168,0.039643704973531785,0.054262379985111554,0.43383371917615654,0.051140632955805156,0.03180163960804768,0.04251616259369285,0.06770378644511603,0.033738174269925425,0.3957137332982286,0.048326214234410726
0.48,0.20121620957998235,0.05555240233793394,0.0393123164823153,0.05543899052260206,0.4307317386620062,0.051248841138680466,0.031862002166064995,0.04249261365510768,0.06904324931508786,0.034084579971847107,0.3978528552988219,0.047913320787414705
0.481,0.2006388212586273,0.0549281767491868,0.03898678516521433,0.05665024684080208,0.4275613138300881,0.051369373913158996,0.0319258325153642,0.04246684071139721,0.07039290689471049,0.03443096776681875,0.399915344932711,0.04750677126074697
0.482,0.20009050564517564,0.05431226608028654,0.03866733235749301,0.057896369851069295,0.4243238143565669,0.05150285976500867,0.03199304139911775,0.04243892302722263,0.07175168093353027,0.03477666718791951,0.4019005777440655,0.04710703684297555
0.483,0.1995708011439314,0.05370472908198695,0.03835417217639651,0.05917754710881758,0.4210206900702034,0.051649937651756773,0.03206353378831321,0.04240894504120926,0.07311847939636676,0.03512099157039561,0.40380797547781394,0.046714567390149175
0.484,0.19907922730937344,0.053105617146029634,0.038047511263982974,0.06049393192704716,0.41765346793190206,0.05181125620155272,0.03213720902619571,0.04237699622472321,0.07449219742784105,0.035463238714773956,0.4056370060451175,0.04632979119002218
0.485,0.19861528701599768,0.05251497441976464,0.03774754853678475,0.06184564253356789,0.4142237490079277,0.05198747288103894,0.032213960981923195,0.04234317092868075,0.07587171832869778,0.03580269158982655,0.40738718343881025,0.04595311475796808
