Raw.Pin 1,Raw.Pin 2,Raw.Pin 3,Raw.Pin 4,Raw.Pin 5,Raw.Pin 6,Raw.Pin 7,Raw.Pin 8,Raw.Pin 9,Raw.Pin 10,Raw.Pin 11,Raw.Pin 12,Raw.Pin 13,Raw.Pin 14,Raw.Pin 15,Raw.Pin 16,Raw.Pin 41,Raw.Pin 42,Raw.Pin 43,Raw.Pin 44,Raw.Pin 45,Raw.Pin 46,Raw.Pin 47,Raw.Pin 48,Raw.Pin 49,Raw.Pin 50,Raw.Pin 51,Raw.Pin 52,Raw.Pin 53,Raw.Pin 54,Raw.Pin 55,Raw.Pin 56,Raw.Pin 57,Raw.Pin 58,Raw.Pin 59,Raw.Pin 60,Raw.Pin 61,Raw.Pin 62,Raw.Pin 63,Raw.Pin 64,Voltage.EMG01_r_gastro,Voltage.EMG02_r_soleus,Voltage.EMG03_r_rect_fem,Voltage.EMG04_r_tfl,Voltage.EMG05_r_semimemb,Voltage.EMG06_l_gastro,Voltage.EMG07_l_soleus,Voltage.EMG08_l_rect_fem,Voltage.EMG09_l_tfl,Voltage.EMG10_l_semimemb,Voltage.not_used
-0.0030517578125,-0.00335693359375,-0.00152587890625,-0.0091552734375,-0.00335693359375,0.00701904296875,-0.001220703125,-0.00213623046875,-0.028076171875,-0.02166748046875,-0.02471923828125,-0.02471923828125,-0.01953125,-0.02105712890625,-0.01556396484375,-0.01495361328125,-0.0018310546875,-0.00213623046875,0.0030517578125,-0.0091552734375,-0.0091552734375,0.00457763671875,-0.00946044921875,0.00030517578125,0.0225830078125,-0.0018310546875,-0.00335693359375,-0.0067138671875,0.0,-0.00701904296875,-0.00518798828125,-0.001220703125,-0.0048828125,0.00152587890625,-0.00396728515625,-0.0006103515625,-0.0042724609375,-0.0079345703125,-0.00885009765625,-0.00396728515625,0.042460326105356216,0.021722106263041496,0.025980224832892418,0.02224639803171158,0.02650756761431694,0.028496094048023224,0.043960876762866974,0.03804107755422592,0.02695617638528347,0.04982757568359375,0.03602844104170799
-0.0030517578125,-0.003662109375,0.01068115234375,-0.01220703125,-0.00579833984375,-0.001220703125,-0.00213623046875,-0.00396728515625,-0.02532958984375,-0.02410888671875,-0.02655029296875,-0.0140380859375,-0.02044677734375,-0.02410888671875,-0.0262451171875,-0.00823974609375,-0.00762939453125,0.00213623046875,-0.0006103515625,-0.00274658203125,-0.0091552734375,-0.0048828125,-0.0042724609375,-0.00213623046875,-0.0042724609375,-0.0042724609375,-0.00152587890625,-0.00335693359375,-0.00335693359375,-0.00823974609375,0.00091552734375,0.0006103515625,-0.00701904296875,0.01312255859375,-0.0018310546875,-0.0048828125,-0.00732421875,-0.0079345703125,-0.00152587890625,0.00030517578125,0.034525755792856216,-0.006659240927547216,0.025675049051642418,0.02606109529733658,0.02757568284869194,0.033073730766773224,0.036178894340991974,0.03941436856985092,0.03870544582605362,0.04738616943359375,0.05586486682295799
-0.0042724609375,0.00213623046875,-0.00244140625,-0.01068115234375,-0.00274658203125,-0.0042724609375,-0.0030517578125,-0.0067138671875,0.00152587890625,-0.0091552734375,-0.00213623046875,-0.00396728515625,-0.00213623046875,-0.0152587890625,-0.0042724609375,-0.00335693359375,-0.00030517578125,0.00030517578125,-0.0042724609375,-0.0042724609375,-0.01129150390625,-0.003662109375,-0.0054931640625,-0.0067138671875,-0.00579833984375,-0.00091552734375,-0.00579833984375,-0.00457763671875,-0.00946044921875,-0.003662109375,-0.00274658203125,-0.0054931640625,0.00091552734375,-0.001220703125,0.001220703125,-0.00152587890625,0.00152587890625,-0.0042724609375,-0.0054931640625,-0.00030517578125,0.024454956874251366,0.036217957735061646,0.025980224832892418,0.03384307771921158,0.02650756761431694,0.030937500298023224,0.031448669731616974,0.04338165372610092,0.03046569786965847,0.03746795654296875,0.03328185901045799
0.003662109375,-0.00091552734375,-0.00274658203125,-0.02349853515625,-0.0054931640625,-0.00335693359375,-0.01556396484375,-0.001220703125,-0.003662109375,-0.01312255859375,-0.010986328125,-0.00396728515625,-0.01556396484375,-0.00213623046875,-0.00244140625,-0.003662109375,0.00030517578125,-0.0042724609375,-0.0006103515625,-0.00030517578125,-0.00579833984375,0.00274658203125,-0.0006103515625,-0.00244140625,0.0048828125,-0.0042724609375,0.001220703125,0.00030517578125,-0.0042724609375,-0.00091552734375,0.0,-0.0048828125,0.00030517578125,-0.00213623046875,-0.0067138671875,-0.0048828125,-0.0103759765625,-0.00946044921875,-0.00579833984375,-0.00640869140625,0.036661986261606216,0.035760194063186646,0.008127441629767418,0.03231719881296158,0.03123779222369194,-0.011634521186351776,0.029770202934741974,0.03010650724172592,0.03595886379480362,0.02587127685546875,0.029009399935603142
-0.0042724609375,-0.00244140625,-0.0030517578125,-0.01708984375,-0.00579833984375,-0.00091552734375,0.00732421875,-0.00335693359375,-0.0048828125,-0.00701904296875,-0.01312255859375,-0.0042724609375,-0.01678466796875,-0.0042724609375,-0.00213623046875,0.00396728515625,-0.0054931640625,-0.01129150390625,-0.00732421875,-0.001220703125,-0.0042724609375,-0.001220703125,0.0,-0.0006103515625,0.0018310546875,-0.01922607421875,-0.001220703125,-0.00823974609375,-0.02777099609375,-0.00946044921875,-0.008544921875,0.00396728515625,-0.00579833984375,-0.0030517578125,0.01373291015625,-0.001220703125,0.0,-0.00732421875,-0.00457763671875,-0.0067138671875,0.036051634699106216,0.025994567200541496,0.009042968973517418,0.04299835115671158,0.03398437425494194,0.021171875298023224,0.029922790825366974,0.03147979825735092,0.04053650051355362,0.01702117919921875,0.04472595080733299
-0.00213623046875,-0.00244140625,-0.00579833984375,-0.008544921875,-0.00640869140625,0.0030517578125,-0.00396728515625,-0.001220703125,0.0018310546875,-0.003662109375,-0.01220703125,-0.0042724609375,-0.001220703125,-0.00335693359375,-0.001220703125,-0.00244140625,-0.00213623046875,-0.00518798828125,-0.00701904296875,-0.0054931640625,-0.00518798828125,0.00152587890625,-0.00213623046875,0.00274658203125,-0.00152587890625,-0.001220703125,-0.00579833984375,-0.0067138671875,-0.00885009765625,0.008544921875,-0.0042724609375,-0.00640869140625,-0.00732421875,-0.00518798828125,-0.00030517578125,-0.00213623046875,0.0006103515625,-0.0054931640625,-0.00152587890625,0.00213623046875,0.032084349542856216,0.023095397278666496,0.023081054911017418,0.02407745271921158,0.03505248948931694,0.07244140654802322,0.041672058403491974,0.02842804044485092,0.03183899074792862,0.01900482177734375,0.04274230822920799
-0.00518798828125,-0.0030517578125,-0.00244140625,-0.0091552734375,-0.00274658203125,-0.00274658203125,-0.0030517578125,0.00274658203125,-0.00579833984375,-0.0018310546875,-0.03021240234375,-0.00579833984375,-0.0042724609375,0.00640869140625,-0.00274658203125,-0.00213623046875,-0.0018310546875,-0.00030517578125,-0.00579833984375,-0.006103515625,-0.00518798828125,-0.00091552734375,0.0006103515625,-0.00335693359375,0.00457763671875,-0.00213623046875,-0.00823974609375,-0.013427734375,-0.01129150390625,-0.00701904296875,-0.003662109375,-0.00823974609375,-0.0042724609375,-0.00640869140625,-0.00335693359375,-0.00732421875,-0.00335693359375,-0.00335693359375,0.00030517578125,-0.0018310546875,0.033915404230356216,0.029961852356791496,0.027811279520392418,0.02102569490671158,0.03825683519244194,0.037498779594898224,0.029312439262866974,0.03407379239797592,0.04023132473230362,0.02297210693359375,0.04518371447920799
-0.00396728515625,-0.00244140625,-0.001220703125,-0.0103759765625,-0.00518798828125,-0.00213623046875,-0.00396728515625,-0.0042724609375,-0.0054931640625,-0.00244140625,-0.0152587890625,-0.0018310546875,-0.00274658203125,-0.003662109375,-0.00244140625,-0.001220703125,-0.00579833984375,-0.0018310546875,-0.00518798828125,-0.0030517578125,-0.006103515625,-0.00274658203125,-0.0018310546875,-0.0054931640625,-0.001220703125,-0.00579833984375,-0.00518798828125,-0.001220703125,-0.00640869140625,-0.003662109375,-0.00335693359375,-0.00823974609375,-0.00091552734375,0.00030517578125,-0.0030517578125,-0.0042724609375,0.001220703125,-0.00244140625,-0.00457763671875,0.00030517578125,0.038645628839731216,0.036370545625686646,0.03559326007962227,0.03002838045358658,0.03825683519244194,0.033684082329273224,0.023208923637866974,0.03559967130422592,0.02985534630715847,0.02312469482421875,0.028704224154353142
-0.0042724609375,0.0048828125,-0.00091552734375,-0.010986328125,-0.0067138671875,-0.0048828125,-0.00244140625,-0.01129150390625,-0.00457763671875,-0.00274658203125,-0.02105712890625,-0.00244140625,-0.0030517578125,0.01129150390625,-0.00152587890625,-0.0006103515625,-0.0079345703125,-0.00579833984375,-0.010986328125,-0.0091552734375,-0.00823974609375,-0.008544921875,0.00152587890625,-0.0030517578125,-0.00030517578125,0.0006103515625,0.003662109375,0.003662109375,-0.0048828125,-0.01007080078125,-0.00457763671875,-0.0091552734375,-0.0238037109375,-0.00885009765625,-0.00885009765625,-0.010986328125,-0.0103759765625,-0.0018310546875,-0.01220703125,-0.0067138671875,0.014536743052303791,0.029961852356791496,0.021860351786017418,0.02682403475046158,0.02604980394244194,0.028648681938648224,0.024887390434741974,0.02583404630422592,0.01688537560403347,0.03472137451171875,0.03618102893233299
-0.00335693359375,-0.001220703125,0.003662109375,-0.01190185546875,-0.0048828125,0.00091552734375,-0.001220703125,-0.0018310546875,-0.02044677734375,-0.00885009765625,-0.0091552734375,-0.006103515625,-0.00396728515625,-0.00640869140625,-0.009765625,-0.0006103515625,-0.015869140625,-0.0018310546875,-0.00732421875,-0.00152587890625,-0.0030517578125,0.001220703125,-0.001220703125,-0.006103515625,-0.0018310546875,0.0006103515625,-0.00640869140625,-0.0054931640625,-0.01312255859375,0.00274658203125,-0.0006103515625,-0.00579833984375,-0.020751953125,-0.01007080078125,-0.00335693359375,-0.0018310546875,-0.00457763671875,-0.0042724609375,-0.0054931640625,0.0006103515625,0.019114380702376366,0.045068055391311646,0.027048340067267418,0.03048614412546158,0.03596801683306694,0.024223633110523224,0.018326111137866974,0.02751251310110092,0.03962097316980362,0.02281951904296875,0.030382690951228142
-0.00152587890625,-0.0030517578125,-0.00274658203125,-0.008544921875,-0.00579833984375,-0.0030517578125,-0.00030517578125,-0.00823974609375,-0.01983642578125,-0.02105712890625,-0.03387451171875,-0.013427734375,-0.01983642578125,-0.00946044921875,-0.0225830078125,-0.01373291015625,-0.00640869140625,-0.00274658203125,0.0018310546875,0.00335693359375,-0.0067138671875,-0.0262451171875,-0.00946044921875,-0.00518798828125,0.0201416015625,-0.0018310546875,-0.00244140625,-0.0054931640625,-0.006103515625,-0.00579833984375,0.0006103515625,-0.00701904296875,0.0018310546875,-0.0042724609375,-0.00152587890625,-0.00457763671875,-0.00152587890625,0.0018310546875,-0.0006103515625,-0.00396728515625,0.021708374843001366,0.06475189328193665,0.030100097879767418,0.03430084139108658,0.03566284105181694,0.039177246391773224,0.017868347465991974,0.03224273771047592,0.02344665490090847,0.01580047607421875,0.023363647982478142
0.0006103515625,-0.00152587890625,-0.0030517578125,-0.01434326171875,-0.0048828125,-0.00335693359375,0.00152587890625,-0.00335693359375,-0.0250244140625,-0.0238037109375,-0.02685546875,-0.015869140625,-0.01495361328125,-0.0225830078125,-0.02410888671875,-0.02288818359375,-0.01220703125,-0.00396728515625,-0.00762939453125,-0.0091552734375,-0.00518798828125,0.00640869140625,-0.00946044921875,-0.00091552734375,-0.00579833984375,0.0,0.0,-0.0128173828125,-0.00091552734375,-0.0048828125,0.01739501953125,0.00030517578125,0.00091552734375,0.02197265625,-0.0018310546875,0.0006103515625,-0.00457763671875,-0.006103515625,-0.00457763671875,-0.0048828125,0.016978150233626366,0.023705748841166496,0.03391479328274727,0.03369048982858658,0.03489990159869194,0.044212646782398224,0.032974548637866974,0.04124542325735092,-0.01500549353659153,0.01320648193359375,0.023058472201228142
-0.00213623046875,-0.00213623046875,-0.0018310546875,-0.00732421875,-0.003662109375,-0.001220703125,0.0030517578125,-0.00213623046875,-0.0030517578125,-0.0067138671875,-0.0103759765625,-0.00335693359375,-0.003662109375,-0.0018310546875,-0.00274658203125,-0.006103515625,-0.0018310546875,0.0042724609375,0.001220703125,-0.00274658203125,-0.0048828125,-0.0030517578125,0.00152587890625,-0.00885009765625,-0.00885009765625,-0.0018310546875,-0.0048828125,0.00335693359375,-0.0042724609375,-0.0067138671875,-0.0115966796875,-0.010986328125,-0.0030517578125,0.00244140625,-0.00457763671875,0.0006103515625,-0.00579833984375,-0.00457763671875,-0.001220703125,0.0201416015625,0.022471314296126366,0.004937438759952784,0.03467773273587227,0.03491119295358658,0.03184814378619194,0.047416992485523224,0.032516784965991974,0.02552887052297592,0.01520690880715847,0.01992034912109375,0.021380005404353142
-0.0042724609375,-0.0018310546875,-0.00823974609375,-0.00762939453125,-0.00244140625,0.0091552734375,-0.001220703125,-0.00335693359375,-0.001220703125,-0.0042724609375,-0.01068115234375,-0.0048828125,-0.00335693359375,-0.003662109375,0.0006103515625,-0.00396728515625,0.00518798828125,0.0006103515625,-0.00732421875,-0.01068115234375,-0.006103515625,-0.0018310546875,0.0018310546875,-0.00213623046875,-0.00396728515625,-0.00640869140625,-0.0018310546875,0.00244140625,-0.00244140625,-0.0103759765625,-0.009765625,-0.009765625,0.0030517578125,-0.001220703125,-0.00091552734375,-0.00823974609375,-0.00885009765625,-0.003662109375,0.0146484375,-0.00244140625,0.024912720546126366,0.007684020791202784,0.03956054523587227,0.03750518709421158,0.03108520433306694,0.028343506157398224,0.033127136528491974,0.02278228849172592,0.04587707668542862,0.01381683349609375,0.021380005404353142
0.00579833984375,-0.0030517578125,0.0,-0.008544921875,-0.0048828125,-0.0030517578125,-0.00091552734375,0.0030517578125,-0.0018310546875,-0.00213623046875,-0.00823974609375,-0.0042724609375,0.0,0.00152587890625,-0.00274658203125,-0.00457763671875,-0.00732421875,-0.00396728515625,0.0054931640625,-0.001220703125,0.00244140625,-0.01220703125,-0.008544921875,-0.00091552734375,0.00030517578125,0.001220703125,-0.0030517578125,-0.00732421875,-0.0042724609375,-0.0079345703125,-0.0042724609375,-0.003662109375,-0.0030517578125,-0.0042724609375,0.0018310546875,-0.00335693359375,0.0018310546875,0.00335693359375,-0.001220703125,-0.0030517578125,0.034678343683481216,0.015313415788114071,0.03803466632962227,0.03918365389108658,0.03703613206744194,0.037041015923023224,0.028091736137866974,0.02201934903860092,0.02939758263528347,0.01168060302734375,0.028246460482478142
-0.00274658203125,0.00030517578125,0.0,-0.00885009765625,0.00213623046875,-0.00335693359375,-0.00091552734375,-0.00823974609375,-0.00396728515625,-0.00152587890625,-0.00732421875,-0.001220703125,-0.00091552734375,-0.0115966796875,-0.00091552734375,-0.0018310546875,-0.00762939453125,-0.0042724609375,-0.0042724609375,-0.00274658203125,0.00244140625,-0.00213623046875,-0.00091552734375,-0.0054931640625,-0.001220703125,-0.00030517578125,-0.0030517578125,0.0,-0.00213623046875,-0.0079345703125,-0.00213623046875,-0.006103515625,-0.0067138671875,-0.00091552734375,-0.0030517578125,-0.00457763671875,-0.00091552734375,-0.0067138671875,-0.00213623046875,-0.0030517578125,0.024607544764876366,0.029656676575541496,0.03330444172024727,0.05673126131296158,0.03734130784869194,0.033836670219898224,0.040909118950366974,0.03178497403860092,0.03244934231042862,0.00786590576171875,0.022142944857478142
-0.001220703125,-0.00274658203125,0.00030517578125,-0.006103515625,-0.01190185546875,-0.00213623046875,0.00091552734375,-0.00732421875,-0.00213623046875,-0.00091552734375,-0.018310546875,-0.0006103515625,-0.00091552734375,0.008544921875,0.0006103515625,-0.0006103515625,-0.0201416015625,-0.00213623046875,0.00335693359375,0.0201416015625,-0.0018310546875,0.00152587890625,-0.00244140625,-0.0030517578125,-0.00335693359375,-0.00640869140625,-0.00091552734375,-0.00885009765625,-0.00518798828125,-0.003662109375,-0.006103515625,-0.0067138671875,-0.00274658203125,-0.0067138671875,-0.00244140625,-0.00213623046875,0.00091552734375,-0.00091552734375,-0.00030517578125,0.003662109375,0.032694701105356216,0.038811951875686646,0.03345702961087227,0.02163604646921158,0.03779907152056694,0.029411621391773224,0.014664001762866974,0.03895660489797592,0.03077087365090847,0.01381683349609375,0.018175659701228142
-0.0048828125,-0.00213623046875,-0.008544921875,-0.0103759765625,-0.00518798828125,-0.00152587890625,0.00152587890625,-0.0030517578125,-0.0048828125,-0.0018310546875,-0.01220703125,-0.00244140625,-0.00457763671875,-0.00244140625,-0.00396728515625,0.00091552734375,-0.00396728515625,-0.00091552734375,-0.00732421875,-0.01068115234375,-0.00701904296875,-0.006103515625,-0.00518798828125,-0.0030517578125,-0.0042724609375,-0.0054931640625,-0.00335693359375,-0.00213623046875,0.0054931640625,-0.006103515625,-0.0042724609375,-0.0042724609375,0.00213623046875,-0.00213623046875,0.00030517578125,-0.00762939453125,-0.00640869140625,-0.00885009765625,0.00579833984375,0.00152587890625,0.019266968593001366,0.021874694153666496,0.028879394754767418,0.02926544100046158,0.03062744066119194,0.004997558426111937,0.018783874809741974,0.02018829435110092,0.02573547326028347,0.02022552490234375,0.021685181185603142
-0.0030517578125,-0.00152587890625,-0.00244140625,-0.0164794921875,-0.0030517578125,-0.00335693359375,-0.01861572265625,-0.0030517578125,-0.003662109375,-0.001220703125,-0.01220703125,-0.0042724609375,-0.00335693359375,-0.003662109375,-0.00152587890625,-0.00213623046875,-0.0042724609375,0.0,-0.0048828125,-0.0042724609375,-0.006103515625,0.00274658203125,-0.00244140625,-0.00030517578125,-0.01068115234375,-0.0115966796875,-0.0018310546875,-0.00335693359375,-0.00213623046875,-0.008544921875,-0.010986328125,-0.0067138671875,-0.00091552734375,-0.003662109375,-0.00396728515625,-0.0079345703125,-0.0030517578125,0.003662109375,0.003662109375,-0.00030517578125,0.010416870005428791,0.039880067110061646,0.028574218973517418,-0.0006417846889235079,0.02742309495806694,0.034752197563648224,0.032211609184741974,0.02766510099172592,0.03061828576028347,0.02861785888671875,0.03480773791670799
-0.006103515625,-0.00335693359375,-0.003662109375,-0.01068115234375,-0.006103515625,-0.00518798828125,-0.00244140625,-0.003662109375,-0.0067138671875,-0.00701904296875,-0.0115966796875,0.0042724609375,-0.006103515625,-0.00701904296875,-0.00579833984375,-0.00396728515625,-0.008544921875,-0.00518798828125,-0.00335693359375,-0.00518798828125,-0.0054931640625,-0.0018310546875,-0.00152587890625,-0.0054931640625,-0.0091552734375,-0.0054931640625,-0.00640869140625,-0.00579833984375,-0.00732421875,-0.00457763671875,-0.0067138671875,-0.00732421875,-0.003662109375,0.001220703125,-0.0006103515625,-0.001220703125,0.0030517578125,0.0006103515625,-0.00213623046875,0.00091552734375,0.014536743052303791,0.010735779069364071,0.020181884989142418,0.03292755037546158,-0.0018737793434411287,0.029564209282398224,0.038467712700366974,-0.009718933142721653,0.01535949669778347,0.02419281005859375,0.03785949572920799
-0.00030517578125,-0.001220703125,-0.00244140625,-0.02777099609375,-0.00579833984375,-0.00335693359375,0.006103515625,-0.0048828125,-0.02227783203125,-0.02197265625,-0.02410888671875,-0.01220703125,-0.03509521484375,-0.0189208984375,-0.025634765625,-0.01617431640625,-0.0048828125,-0.00213623046875,-0.003662109375,-0.00579833984375,-0.0048828125,0.00518798828125,-0.010986328125,-0.00457763671875,0.00091552734375,-0.008544921875,-0.00152587890625,0.0006103515625,-0.0042724609375,-0.00152587890625,-0.0018310546875,-0.0018310546875,0.0006103515625,-0.00030517578125,-0.00518798828125,-0.00457763671875,0.00152587890625,-0.01007080078125,-0.00274658203125,-0.001220703125,0.020487671718001366,0.017754821106791496,0.03849243000149727,0.01934722810983658,0.03047485277056694,0.06572753936052322,0.039535827934741974,0.02781768888235092,0.01322326622903347,0.02022552490234375,0.030535278841853142
-0.00732421875,-0.00396728515625,-0.0018310546875,-0.01129150390625,-0.0079345703125,-0.00244140625,-0.001220703125,-0.00152587890625,-0.023193359375,-0.02899169921875,-0.02899169921875,-0.01556396484375,-0.032958984375,-0.02197265625,-0.02655029296875,-0.01861572265625,-0.0177001953125,-0.0048828125,-0.00213623046875,-0.0042724609375,-0.00091552734375,-0.0042724609375,-0.0054931640625,-0.00335693359375,0.0006103515625,-0.00518798828125,-0.0042724609375,-0.008544921875,-0.00823974609375,-0.0030517578125,-0.00640869140625,-0.00152587890625,-0.01220703125,-0.00396728515625,-0.00701904296875,-0.01129150390625,-0.003662109375,-0.00244140625,-0.0018310546875,0.00396728515625,0.017283326014876366,0.015313415788114071,0.030710449442267418,0.02896026521921158,0.02437133714556694,0.024376221001148224,0.043503113090991974,0.02568145841360092,0.02008972130715847,0.02922821044921875,0.022600708529353142
-0.0048828125,-0.00244140625,0.01251220703125,-0.00946044921875,-0.00823974609375,-0.0042724609375,-0.00244140625,-0.00244140625,-0.0079345703125,0.00030517578125,-0.01312255859375,-0.00518798828125,0.00823974609375,-0.00335693359375,-0.00396728515625,-0.01220703125,-0.00762939453125,-0.0177001953125,-0.001220703125,-0.00152587890625,-0.00732421875,-0.00244140625,-0.00518798828125,-0.0042724609375,-0.006103515625,-0.01007080078125,-0.0091552734375,0.0006103515625,-0.001220703125,-0.0030517578125,0.00213623046875,-0.00244140625,-0.001220703125,-0.001220703125,0.0006103515625,-0.006103515625,-0.00091552734375,-0.00244140625,-0.00335693359375,0.0,0.019419556483626366,0.025079039856791496,0.03223632648587227,0.03552154451608658,0.03978271409869194,0.037956543266773224,0.028549499809741974,0.03849884122610092,0.02146301232278347,0.02434539794921875,0.029314575716853142
-0.0030517578125,-0.00213623046875,-0.00244140625,-0.01190185546875,-0.0079345703125,0.00030517578125,-0.0042724609375,-0.00244140625,0.0018310546875,-0.00091552734375,-0.01373291015625,-0.00457763671875,-0.0067138671875,-0.0030517578125,-0.00335693359375,-0.0042724609375,-0.00274658203125,-0.00518798828125,-0.00885009765625,-0.00579833984375,-0.0128173828125,-0.00335693359375,-0.00640869140625,-0.0054931640625,0.00244140625,-0.00518798828125,-0.00152587890625,-0.00396728515625,-0.00396728515625,-0.0042724609375,-0.00762939453125,0.00152587890625,-0.00457763671875,-0.00244140625,0.006103515625,-0.00274658203125,-0.00030517578125,0.0030517578125,-0.0006103515625,-0.00244140625,0.032847288995981216,0.014550476334989071,0.03437255695462227,0.02941802889108658,0.03551025316119194,0.023765869438648224,0.043197937309741974,0.02156158536672592,0.03199157863855362,0.04143524169921875,0.029009399935603142
-0.00579833984375,-0.0018310546875,-0.00701904296875,-0.0091552734375,-0.006103515625,0.00732421875,-0.0018310546875,-0.0006103515625,0.0048828125,-0.00152587890625,-0.01495361328125,-0.0189208984375,-0.0042724609375,-0.00396728515625,0.00762939453125,-0.00213623046875,-0.00518798828125,0.00244140625,-0.00274658203125,-0.00030517578125,-0.0067138671875,-0.0006103515625,-0.0030517578125,-0.00946044921875,0.0006103515625,-0.00396728515625,-0.00885009765625,-0.003662109375,-0.00457763671875,-0.00457763671875,-0.00457763671875,-0.0030517578125,-0.00091552734375,-0.0042724609375,0.00030517578125,-0.0018310546875,-0.00518798828125,0.001220703125,-0.00091552734375,-0.00274658203125,0.040018919855356216,0.039727479219436646,0.03360961750149727,0.02667144685983658,0.03428955003619194,0.031700439751148224,0.039078064262866974,0.013169250451028347,0.02985534630715847,0.02800750732421875,0.03572326526045799
-0.00732421875,-0.00274658203125,-0.00030517578125,-0.01007080078125,-0.00762939453125,-0.0030517578125,-0.0018310546875,-0.00244140625,-0.0048828125,0.0,-0.01007080078125,-0.00274658203125,-0.0048828125,0.0,-0.0018310546875,-0.00335693359375,-0.00396728515625,-0.006103515625,-0.008544921875,-0.0067138671875,-0.0054931640625,-0.0042724609375,0.0018310546875,0.0030517578125,0.0018310546875,-0.0042724609375,0.0018310546875,-0.0054931640625,-0.01068115234375,0.00213623046875,-0.00946044921875,-0.00335693359375,-0.00152587890625,-0.00335693359375,-0.00579833984375,-0.00579833984375,-0.0067138671875,-0.00457763671875,-0.00213623046875,0.00213623046875,0.06687439233064651,0.039880067110061646,0.030557861551642418,0.04894927889108658,0.04100341722369194,0.027122803032398224,0.027023620903491974,0.01957794278860092,0.02573547326028347,0.02861785888671875,0.024279175326228142
-0.00274658203125,-0.0030517578125,0.0006103515625,-0.01220703125,-0.00701904296875,-0.0006103515625,0.0,-0.00396728515625,-0.0054931640625,-0.0042724609375,-0.0140380859375,-0.0067138671875,-0.003662109375,-0.00335693359375,-0.00244140625,-0.00244140625,-0.00396728515625,-0.0030517578125,-0.00274658203125,0.00091552734375,-0.0030517578125,-0.0018310546875,-0.00213623046875,0.00518798828125,-0.00335693359375,-0.0054931640625,-0.00244140625,-0.0042724609375,-0.01312255859375,-0.0079345703125,-0.006103515625,-0.0048828125,-0.00335693359375,0.0006103515625,0.0,-0.0018310546875,-0.0164794921875,-0.006103515625,-0.0048828125,0.00152587890625,0.032389525324106216,0.024316100403666496,0.04368041828274727,0.03689483553171158,0.03200073167681694,0.034141846001148224,0.026260681450366974,0.02430816739797592,0.04984436184167862,0.04524993896484375,0.03328185901045799
-0.00579833984375,-0.00244140625,-0.00213623046875,-0.0079345703125,-0.006103515625,-0.00274658203125,0.0,-0.00274658203125,-0.003662109375,-0.010986328125,-0.01312255859375,-0.00396728515625,-0.003662109375,-0.0042724609375,-0.003662109375,0.0103759765625,-0.0177001953125,-0.0018310546875,-0.0079345703125,-0.01007080078125,-0.00762939453125,-0.0048828125,0.00457763671875,-0.00274658203125,0.00152587890625,0.0018310546875,-0.0042724609375,-0.0030517578125,-0.0103759765625,-0.00762939453125,-0.009765625,-0.006103515625,-0.00457763671875,-0.001220703125,-0.001220703125,-0.00518798828125,-0.003662109375,-0.0079345703125,-0.00396728515625,-0.00640869140625,0.031779173761606216,0.039422303438186646,0.022928467020392418,0.02453521639108658,0.03840942308306694,0.018883056938648224,0.026260681450366974,0.03178497403860092,0.03367004543542862,0.06295013427734375,0.027483521029353142
-0.0030517578125,0.00946044921875,0.0006103515625,-0.009765625,-0.00457763671875,-0.00335693359375,0.0006103515625,0.00823974609375,-0.00274658203125,-0.00213623046875,0.00213623046875,-0.0042724609375,-0.0018310546875,0.00946044921875,-0.00030517578125,-0.00091552734375,-0.006103515625,-0.0030517578125,-0.00640869140625,-0.01068115234375,-0.00518798828125,-0.01068115234375,-0.001220703125,-0.00213623046875,-0.00244140625,-0.00518798828125,-0.00274658203125,-0.0018310546875,-0.00274658203125,-0.006103515625,0.00274658203125,-0.00640869140625,-0.0042724609375,-0.00335693359375,-0.0006103515625,-0.003662109375,-0.00579833984375,-0.0018310546875,-0.0042724609375,-0.0067138671875,0.051615599542856216,0.040490418672561646,0.03208373859524727,0.04925445467233658,0.03596801683306694,0.031853027641773224,0.005661315750330687,0.03346344083547592,0.02451477013528347,0.06310272216796875,0.03724914416670799
-0.00091552734375,-0.00152587890625,-0.00213623046875,-0.008544921875,-0.00396728515625,-0.00091552734375,-0.00152587890625,-0.00518798828125,-0.00579833984375,-0.00640869140625,-0.00823974609375,0.001220703125,-0.0048828125,-0.00762939453125,-0.0140380859375,-0.0030517578125,-0.00091552734375,0.0018310546875,-0.00152587890625,-0.00579833984375,-0.00732421875,-0.00885009765625,-0.0048828125,-0.00335693359375,-0.00244140625,0.00030517578125,-0.00274658203125,-0.006103515625,-0.008544921875,-0.00823974609375,0.001220703125,-0.0079345703125,0.00244140625,0.0042724609375,0.0042724609375,-0.001220703125,-0.01556396484375,-0.00244140625,-0.00213623046875,-0.01617431640625,0.004313354380428791,0.040795594453811646,0.03666137531399727,0.02606109529733658,0.03581542894244194,0.017814941704273224,0.016342468559741974,0.02507110685110092,0.02375183068215847,0.07302093505859375,0.025194702669978142
-0.00396728515625,-0.01251220703125,-0.00091552734375,-0.008544921875,-0.006103515625,-0.00335693359375,-0.00091552734375,-0.001220703125,-0.02227783203125,-0.02197265625,-0.02349853515625,-0.0146484375,-0.01953125,-0.020751953125,-0.01708984375,-0.01312255859375,-0.00732421875,-0.006103515625,-0.00579833984375,-0.01434326171875,-0.0048828125,-0.00823974609375,-0.0140380859375,-0.0048828125,-0.00244140625,-0.00396728515625,-0.0030517578125,0.0042724609375,-0.00244140625,-0.00396728515625,-0.00732421875,-0.003662109375,-0.0079345703125,-0.006103515625,-0.006103515625,-0.00244140625,-0.0042724609375,-0.0054931640625,-0.00396728515625,-0.0018310546875,0.013773803599178791,0.045678406953811646,0.04749511554837227,0.03262237459421158,0.03291625902056694,0.030479736626148224,0.023208923637866974,0.02018829435110092,0.03672180324792862,0.05043792724609375,0.015276488848030567
-0.00091552734375,-0.00152587890625,-0.00030517578125,-0.010986328125,-0.00640869140625,-0.0030517578125,0.0030517578125,-0.00335693359375,-0.02105712890625,-0.032958984375,-0.02716064453125,-0.01434326171875,-0.0238037109375,-0.02105712890625,-0.025634765625,-0.01800537109375,-0.00579833984375,-0.0054931640625,0.001220703125,-0.003662109375,-0.00274658203125,-0.00701904296875,-0.00823974609375,0.00457763671875,-0.00335693359375,0.00244140625,0.00396728515625,-0.0006103515625,-0.0054931640625,0.00091552734375,-0.00640869140625,-0.00457763671875,0.00640869140625,-0.0054931640625,-0.0006103515625,-0.00396728515625,-0.0006103515625,-0.0067138671875,0.0,-0.003662109375,0.004923705942928791,0.040795594453811646,0.04093383625149727,0.02712921053171158,0.03078002855181694,0.022545166313648224,0.017715759575366974,0.02324005216360092,0.01627502404153347,0.04921722412109375,0.04777770861983299
-0.00274658203125,-0.0006103515625,-0.00152587890625,-0.0091552734375,-0.00213623046875,-0.0018310546875,-0.0006103515625,-0.00335693359375,-0.0018310546875,-0.00335693359375,-0.0128173828125,-0.003662109375,-0.00091552734375,-0.00335693359375,-0.0018310546875,-0.00213623046875,-0.001220703125,-0.0006103515625,-0.00274658203125,0.0018310546875,-0.0018310546875,-0.0048828125,-0.00396728515625,-0.001220703125,-0.0067138671875,0.00091552734375,-0.00335693359375,-0.00518798828125,-0.00091552734375,-0.00518798828125,-0.00457763671875,-0.001220703125,-0.0006103515625,0.00030517578125,-0.0030517578125,0.00396728515625,-0.00030517578125,-0.00701904296875,-0.00091552734375,-0.00091552734375,0.024454956874251366,0.035760194063186646,0.019724121317267418,0.02972320467233658,0.02574462816119194,0.034294433891773224,0.019394226372241974,0.02400299161672592,0.01368102990090847,0.04845428466796875,0.017412720248103142
-0.0018310546875,-0.00335693359375,-0.00091552734375,-0.00762939453125,-0.00640869140625,-0.00457763671875,-0.0006103515625,-0.00244140625,-0.003662109375,0.0,-0.01373291015625,-0.001220703125,-0.0042724609375,-0.00244140625,-0.0018310546875,-0.00091552734375,-0.01129150390625,-0.00640869140625,0.00244140625,-0.0067138671875,0.0,0.0079345703125,-0.00213623046875,0.0,-0.0018310546875,0.001220703125,-0.00335693359375,-0.00579833984375,-0.00213623046875,-0.0091552734375,-0.00274658203125,-0.003662109375,-0.003662109375,-0.00152587890625,-0.006103515625,-0.00244140625,-0.0067138671875,-0.0079345703125,-0.00518798828125,-0.008544921875,0.027201538905501366,0.033013612031936646,0.011636963114142418,0.03079131990671158,0.03917236253619194,0.040703125298023224,0.015884704887866974,0.02430816739797592,0.01551208458840847,0.03624725341796875,0.030535278841853142
-0.001220703125,-0.00457763671875,-0.0018310546875,-0.01068115234375,-0.01434326171875,-0.0006103515625,-0.00152587890625,0.00335693359375,-0.00244140625,-0.00274658203125,-0.01129150390625,-0.0018310546875,-0.00274658203125,-0.00457763671875,0.0,0.00030517578125,-0.00457763671875,-0.00244140625,-0.0042724609375,-0.00701904296875,-0.0018310546875,-0.00091552734375,-0.009765625,-0.00457763671875,-0.0018310546875,0.00701904296875,0.00091552734375,-0.00732421875,0.01220703125,-0.00396728515625,-0.0006103515625,0.0018310546875,-0.00518798828125,-0.00457763671875,0.0,-0.00762939453125,-0.00457763671875,-0.00946044921875,0.00396728515625,0.00152587890625,0.031473997980356216,0.029198912903666496,0.029337158426642418,0.01919464021921158,-0.011639404110610485,0.023765869438648224,0.026413269340991974,0.011795959435403347,0.02070007286965847,0.02053070068359375,0.012987670488655567
-0.001220703125,-0.0018310546875,-0.00213623046875,-0.015869140625,-0.0048828125,-0.00457763671875,0.0091552734375,-0.00030517578125,-0.0006103515625,0.00579833984375,-0.01220703125,-0.00274658203125,-0.00213623046875,-0.00213623046875,-0.00244140625,-0.00213623046875,-0.0067138671875,0.0048828125,-0.00030517578125,-0.00030517578125,-0.010986328125,-0.00244140625,-0.0067138671875,0.0079345703125,-0.00640869140625,-0.00213623046875,-0.00213623046875,-0.00030517578125,-0.00396728515625,-0.008544921875,-0.00732421875,-0.0048828125,-0.00030517578125,-0.00152587890625,0.0018310546875,-0.0030517578125,-0.00457763671875,-0.0079345703125,-0.00213623046875,0.01312255859375,0.038798216730356216,0.024010924622416496,0.04017089679837227,0.04711822420358658,0.02559204027056694,0.035972900688648224,0.008560486137866974,0.03163238614797592,0.03305969387292862,-0.01151275634765625,0.023668823763728142
-0.0018310546875,-0.0067138671875,-0.00152587890625,-0.0091552734375,0.0042724609375,-0.003662109375,-0.0006103515625,0.00335693359375,-0.00274658203125,-0.0042724609375,-0.02166748046875,-0.00274658203125,-0.001220703125,-0.01800537109375,-0.00091552734375,-0.001220703125,-0.01556396484375,-0.001220703125,-0.0006103515625,-0.0140380859375,-0.0030517578125,0.00274658203125,-0.00579833984375,-0.003662109375,-0.00152587890625,-0.013427734375,-0.003662109375,-0.00091552734375,0.01068115234375,-0.00213623046875,-0.0048828125,0.00518798828125,0.0018310546875,-0.00091552734375,-0.0091552734375,-0.0030517578125,0.003662109375,-0.006103515625,-0.003662109375,0.00335693359375,0.045359496027231216,0.051476746797561646,0.03360961750149727,-0.01620575040578842,0.02650756761431694,0.032921142876148224,0.038925476372241974,0.04353424161672592,0.04801330715417862,0.01534271240234375,-0.00028747558826580644
-0.00396728515625,-0.0048828125,0.00091552734375,-0.008544921875,-0.01007080078125,-0.00274658203125,-0.00091552734375,0.0,-0.0030517578125,-0.00244140625,-0.01800537109375,-0.00244140625,-0.00274658203125,0.003662109375,-0.0018310546875,-0.00274658203125,-0.0115966796875,-0.009765625,-0.0048828125,0.0091552734375,-0.00518798828125,0.0042724609375,-0.0067138671875,-0.00091552734375,0.0,-0.00396728515625,0.0018310546875,-0.0054931640625,-0.00579833984375,-0.00396728515625,-0.0091552734375,-0.00335693359375,-0.0030517578125,-0.00732421875,-0.001220703125,-0.0067138671875,0.0006103515625,-0.00579833984375,-0.00762939453125,-0.00274658203125,0.058329466730356216,0.033166199922561646,0.03696655109524727,0.015074768103659153,0.02376098558306694,0.028801269829273224,0.016952820122241974,0.03605743497610092,0.04602966457605362,0.04769134521484375,0.025652466341853142
-0.00274658203125,-0.00213623046875,-0.0042724609375,-0.00823974609375,-0.01068115234375,-0.00244140625,-0.00244140625,0.00335693359375,-0.0018310546875,-0.0030517578125,-0.015869140625,-0.003662109375,-0.003662109375,-0.0054931640625,-0.00335693359375,-0.003662109375,-0.0048828125,-0.009765625,0.001220703125,-0.0030517578125,-0.00030517578125,-0.00213623046875,-0.009765625,-0.00885009765625,-0.0030517578125,-0.0048828125,-0.0048828125,-0.00885009765625,-0.0030517578125,-0.0048828125,-0.00335693359375,0.006103515625,-0.0054931640625,-0.00579833984375,0.0164794921875,0.00030517578125,-0.00091552734375,-0.00732421875,-0.00213623046875,0.00579833984375,0.039255980402231216,0.056664735078811646,0.04047607257962227,0.03231719881296158,0.05198974534869194,0.044212646782398224,0.026260681450366974,0.004776916466653347,0.04572448879480362,0.04097747802734375,0.031145630404353142
-0.00762939453125,-0.00457763671875,-0.00457763671875,-0.0146484375,-0.0067138671875,-0.0042724609375,-0.00274658203125,-0.00335693359375,-0.0067138671875,0.00885009765625,-0.01007080078125,-0.001220703125,0.0048828125,-0.008544921875,-0.01068115234375,-0.00457763671875,-0.0079345703125,0.001220703125,-0.00030517578125,-0.00762939453125,-0.01617431640625,-0.006103515625,-0.00274658203125,-0.00244140625,0.0,-0.00457763671875,-0.0067138671875,-0.00732421875,0.00091552734375,-0.00152587890625,-0.0067138671875,-0.0079345703125,-0.00762939453125,-0.00152587890625,-0.003662109375,-0.0018310546875,-0.01800537109375,-0.00701904296875,-0.0103759765625,0.00701904296875,0.053141478449106216,0.052544862031936646,0.029337158426642418,0.04025176912546158,0.03489990159869194,0.024681396782398224,0.022903747856616974,0.04216095060110092,0.04740295559167862,0.04174041748046875,0.030687866732478142
-0.00335693359375,-0.0018310546875,0.00946044921875,-0.0103759765625,-0.0054931640625,-0.01800537109375,-0.0030517578125,-0.00244140625,-0.01220703125,-0.01922607421875,-0.02471923828125,-0.02288818359375,-0.01953125,-0.0213623046875,-0.0128173828125,-0.0128173828125,-0.00152587890625,-0.0030517578125,-0.00640869140625,-0.00244140625,-0.0067138671875,-0.0103759765625,-0.0042724609375,-0.00946044921875,-0.00213623046875,-0.0079345703125,-0.0067138671875,-0.00579833984375,-0.008544921875,-0.00518798828125,-0.00732421875,-0.0079345703125,-0.00335693359375,-0.00091552734375,-0.0048828125,-0.003662109375,-0.00274658203125,-0.0067138671875,-0.00152587890625,-0.00091552734375,0.020945435389876366,0.034844666719436646,0.03391479328274727,0.01888946443796158,0.02528686448931694,0.027122803032398224,0.016647644340991974,0.03239532560110092,0.03504333645105362,0.03838348388671875,0.03251891955733299
-0.0048828125,-0.003662109375,-0.0128173828125,-0.0115966796875,-0.006103515625,-0.0006103515625,-0.00457763671875,-0.001220703125,-0.025634765625,-0.020751953125,-0.0274658203125,-0.00518798828125,-0.020751953125,-0.0225830078125,-0.01434326171875,-0.01556396484375,-0.00885009765625,-0.00701904296875,-0.00640869140625,-0.008544921875,-0.00823974609375,-0.00335693359375,-0.0042724609375,-0.00640869140625,-0.00213623046875,-0.006103515625,-0.001220703125,-0.003662109375,-0.00335693359375,-0.00091552734375,-0.008544921875,-0.001220703125,-0.0018310546875,-0.00732421875,-0.00091552734375,-0.00396728515625,-0.0030517578125,-0.00274658203125,-0.00823974609375,-0.0079345703125,0.023692017421126366,0.025841979309916496,0.021250000223517418,0.04040435701608658,0.007281494326889515,0.014458008110523224,0.024734802544116974,0.004624328576028347,0.03382263332605362,0.03853607177734375,0.03953796252608299
-0.0030517578125,-0.0006103515625,0.00030517578125,-0.00946044921875,0.00152587890625,-0.0048828125,-0.0006103515625,-0.001220703125,-0.00396728515625,-0.00640869140625,-0.01190185546875,-0.00213623046875,-0.00518798828125,-0.003662109375,-0.00213623046875,-0.00213623046875,0.00152587890625,-0.00396728515625,-0.0128173828125,-0.00762939453125,-0.00640869140625,-0.001220703125,-0.00335693359375,-0.0103759765625,-0.0054931640625,-0.008544921875,0.00030517578125,-0.00396728515625,-0.009765625,-0.00762939453125,-0.00396728515625,-0.0030517578125,0.00244140625,0.0,-0.00885009765625,-0.00640869140625,-0.0048828125,0.018310546875,-0.0006103515625,-0.0048828125,0.028880005702376366,0.045525819063186646,0.03483032062649727,0.03384307771921158,0.04420776292681694,0.025291748344898224,0.026718445122241974,0.04658599942922592,0.04053650051355362,0.03502655029296875,0.027636108919978142
-0.00396728515625,-0.0030517578125,0.00823974609375,-0.0091552734375,-0.006103515625,-0.00335693359375,-0.00335693359375,-0.0042724609375,-0.0030517578125,-0.00091552734375,-0.0146484375,-0.00396728515625,0.00701904296875,-0.0018310546875,-0.0006103515625,0.003662109375,-0.0048828125,0.00213623046875,-0.00091552734375,-0.00213623046875,-0.02349853515625,-0.01007080078125,-0.006103515625,-0.00701904296875,0.00213623046875,-0.00640869140625,-0.006103515625,-0.0042724609375,-0.00579833984375,0.00030517578125,-0.0054931640625,-0.0079345703125,-0.00244140625,0.00457763671875,0.00152587890625,-0.00030517578125,0.00335693359375,-0.00335693359375,-0.0067138671875,-0.010986328125,0.024912720546126366,0.045678406953811646,0.03330444172024727,0.03216461092233658,0.02894897386431694,0.031242676079273224,0.011764831840991974,0.03895660489797592,0.03428039699792862,0.02083587646484375,0.023516235873103142
0.01007080078125,-0.00091552734375,-0.001220703125,0.00091552734375,-0.0048828125,-0.00396728515625,-0.01434326171875,-0.00274658203125,-0.0042724609375,0.001220703125,-0.0146484375,-0.003662109375,0.009765625,-0.00335693359375,-0.00335693359375,-0.00274658203125,0.00213623046875,-0.00152587890625,-0.0006103515625,0.00091552734375,0.0006103515625,-0.0030517578125,0.0048828125,0.001220703125,-0.0030517578125,-0.01373291015625,-0.0054931640625,-0.0079345703125,-0.01678466796875,-0.01129150390625,-0.00640869140625,-0.01220703125,-0.0091552734375,-0.00701904296875,-0.01007080078125,-0.00640869140625,-0.00152587890625,0.0115966796875,-0.00152587890625,-0.00335693359375,0.032389525324106216,0.031945496797561646,0.027506103739142418,0.02514556795358658,0.03001708909869194,0.025749512016773224,0.044266052544116974,0.02674957364797592,0.03641662746667862,0.03334808349609375,0.04701476916670799
-0.00213623046875,-0.00579833984375,-0.00152587890625,-0.010986328125,0.00091552734375,-0.00518798828125,-0.00152587890625,0.00274658203125,-0.0042724609375,-0.00396728515625,-0.003662109375,-0.006103515625,-0.003662109375,0.001220703125,-0.00457763671875,-0.00274658203125,-0.00946044921875,-0.00518798828125,-0.0048828125,-0.00152587890625,-0.0067138671875,-0.006103515625,0.00640869140625,-0.00518798828125,-0.00213623046875,0.0006103515625,-0.01007080078125,-0.00457763671875,-0.0042724609375,-0.00732421875,-0.0018310546875,-0.006103515625,-0.0006103515625,-0.00244140625,0.0048828125,0.001220703125,-0.00396728515625,0.001220703125,0.00335693359375,-0.0018310546875,0.052988890558481216,0.0006649780552834272,0.023843994364142418,0.06817535310983658,0.03230590745806694,0.033378906548023224,0.057541199028491974,0.03590484708547592,0.02939758263528347,0.04006195068359375,0.029619751498103142
-0.00335693359375,-0.00244140625,-0.00335693359375,-0.009765625,-0.0048828125,-0.0054931640625,0.00030517578125,-0.0006103515625,-0.0067138671875,-0.00274658203125,-0.01556396484375,-0.0091552734375,-0.0018310546875,-0.0048828125,0.0079345703125,-0.00396728515625,-0.00885009765625,-0.001220703125,-0.00457763671875,-0.0054931640625,-0.00274658203125,-0.00946044921875,-0.00152587890625,-0.00946044921875,-0.00579833984375,-0.00518798828125,-0.0018310546875,-0.00335693359375,-0.008544921875,-0.0115966796875,-0.00579833984375,-0.0048828125,0.0006103515625,-0.001220703125,0.00396728515625,-0.0048828125,-0.00762939453125,-0.0091552734375,-0.0018310546875,-0.00213623046875,0.043833617120981216,0.0021908569615334272,0.03910278156399727,0.02926544100046158,0.004534912295639515,0.033989258110523224,0.043960876762866974,0.03254791349172592,0.04129943996667862,0.03502655029296875,0.03526550158858299
-0.00579833984375,-0.0018310546875,-0.00579833984375,-0.0091552734375,-0.00579833984375,0.00885009765625,-0.0006103515625,-0.00396728515625,-0.00823974609375,-0.00457763671875,-0.01007080078125,-0.0048828125,-0.0030517578125,-0.0054931640625,0.00030517578125,-0.00274658203125,-0.00732421875,-0.00640869140625,-0.00396728515625,-0.00457763671875,-0.00732421875,-0.009765625,-0.0030517578125,-0.01953125,-0.001220703125,-0.0054931640625,-0.01312255859375,-0.0018310546875,0.0,-0.0079345703125,-0.0042724609375,-0.00152587890625,0.0,-0.0048828125,-0.00518798828125,-0.00579833984375,-0.001220703125,-0.00213623046875,-0.0018310546875,-0.0103759765625,0.038035277277231216,0.022485045716166496,0.03803466632962227,0.03369048982858658,0.02910156175494194,-0.0003430175711400807,0.036484070122241974,0.03254791349172592,0.03382263332605362,0.03075408935546875,0.04793029651045799
-0.00244140625,-0.00518798828125,-0.0006103515625,-0.0103759765625,-0.01312255859375,-0.0030517578125,-0.00152587890625,-0.006103515625,-0.00213623046875,-0.00396728515625,-0.0213623046875,-0.00518798828125,-0.00213623046875,-0.01953125,-0.00152587890625,-0.003662109375,-0.0042724609375,0.00274658203125,-0.0018310546875,-0.00244140625,0.0030517578125,-0.00457763671875,-0.00823974609375,-0.02166748046875,-0.00244140625,-0.0030517578125,-0.00244140625,-0.00396728515625,-0.0042724609375,-0.00823974609375,-0.00762939453125,0.00457763671875,-0.0103759765625,-0.00091552734375,-0.00213623046875,-0.00457763671875,-0.00335693359375,-0.008544921875,-0.0042724609375,-0.00152587890625,0.012858276255428791,0.031792908906936646,0.023691406473517418,0.01690582185983658,0.02528686448931694,0.026054687798023224,0.034195251762866974,0.02461334317922592,0.03534851223230362,0.02724456787109375,0.03419738635420799
0.0,-0.00244140625,-0.00030517578125,-0.0048828125,-0.00244140625,-0.00396728515625,-0.00457763671875,-0.00274658203125,-0.00885009765625,-0.0048828125,-0.01068115234375,-0.00091552734375,-0.00396728515625,-0.00640869140625,-0.01251220703125,-0.00823974609375,-0.00701904296875,-0.00030517578125,-0.00335693359375,-0.0042724609375,0.00030517578125,-0.00152587890625,-0.00946044921875,-0.00457763671875,-0.00274658203125,-0.0067138671875,-0.0030517578125,-0.00457763671875,-0.0054931640625,-0.00579833984375,-0.00885009765625,-0.00732421875,-0.00457763671875,-0.00213623046875,-0.0054931640625,-0.001220703125,-0.0006103515625,-0.00732421875,-0.00274658203125,0.001220703125,0.029490357264876366,0.031029967591166496,0.03376220539212227,0.02651885896921158,0.03184814378619194,0.045433349907398224,0.033737488090991974,0.03193756192922592,0.04847107082605362,0.02983856201171875,0.020311890169978142
-0.00091552734375,-0.0006103515625,0.0079345703125,-0.00732421875,-0.0030517578125,0.00396728515625,0.0006103515625,-0.00152587890625,-0.02197265625,-0.0189208984375,-0.02410888671875,-0.0115966796875,-0.01739501953125,-0.01861572265625,-0.0250244140625,-0.01251220703125,-0.00823974609375,-0.00335693359375,-0.0030517578125,-0.00213623046875,0.0006103515625,-0.0067138671875,-0.00732421875,-0.0079345703125,-0.00518798828125,0.00396728515625,-0.00152587890625,-0.00213623046875,-0.01800537109375,-0.00701904296875,-0.0054931640625,0.009765625,-0.00274658203125,0.00152587890625,0.00030517578125,-0.00030517578125,-0.00457763671875,-0.00823974609375,0.0006103515625,-0.00091552734375,0.019877320155501366,0.035455018281936646,0.04581664875149727,0.02239898592233658,0.03078002855181694,0.038566894829273224,0.038467712700366974,0.02980133146047592,0.03977356106042862,0.03182220458984375,0.023973999544978142
-0.00457763671875,-0.0067138671875,-0.00244140625,-0.00946044921875,0.0,-0.0030517578125,-0.0030517578125,-0.00213623046875,-0.0244140625,-0.02471923828125,-0.0262451171875,-0.01678466796875,-0.02044677734375,-0.02288818359375,-0.01922607421875,-0.01617431640625,-0.0250244140625,-0.006103515625,-0.00213623046875,-0.0030517578125,-0.003662109375,-0.009765625,-0.00732421875,0.0006103515625,-0.001220703125,-0.00335693359375,0.001220703125,-0.0006103515625,0.0018310546875,-0.02655029296875,-0.00640869140625,-0.00091552734375,-0.00335693359375,-0.00244140625,-0.006103515625,-0.00518798828125,-0.0054931640625,-0.0030517578125,-0.00396728515625,0.00152587890625,0.028422242030501366,0.043999940156936646,0.024912109598517418,0.02011016756296158,0.02955932542681694,0.018425293266773224,0.027481384575366974,0.03636261075735092,0.04358825832605362,0.03517913818359375,0.03663879260420799
-0.00213623046875,-0.00244140625,-0.00274658203125,-0.009765625,-0.00457763671875,-0.0048828125,-0.00335693359375,-0.00213623046875,-0.0054931640625,-0.0030517578125,-0.009765625,-0.0030517578125,-0.00244140625,-0.0048828125,0.00335693359375,-0.00030517578125,-0.003662109375,-0.00579833984375,-0.006103515625,-0.00732421875,-0.00335693359375,0.0006103515625,-0.00274658203125,-0.00030517578125,0.0048828125,0.0006103515625,-0.0030517578125,0.00518798828125,-0.0030517578125,-0.00732421875,-0.01983642578125,-0.00823974609375,-0.00213623046875,-0.0128173828125,-0.0030517578125,-0.00091552734375,-0.00518798828125,-0.00457763671875,-0.00701904296875,0.0006103515625,0.031779173761606216,0.057732850313186646,0.023996582254767418,0.02865508943796158,0.05946655198931694,0.043754883110523224,0.036026306450366974,0.04155059903860092,0.02008972130715847,0.02846527099609375,0.03175598010420799
-0.00244140625,-0.0042724609375,-0.00335693359375,-0.009765625,-0.00335693359375,-0.01190185546875,-0.00091552734375,-0.00244140625,0.0006103515625,-0.0054931640625,-0.01190185546875,0.0006103515625,-0.0030517578125,-0.001220703125,0.00518798828125,-0.0048828125,-0.00946044921875,-0.00213623046875,-0.00732421875,-0.0067138671875,-0.00579833984375,0.0018310546875,0.02166748046875,-0.00274658203125,-0.0018310546875,-0.01922607421875,-0.00396728515625,-0.00091552734375,-0.00213623046875,-0.00579833984375,-0.00213623046875,0.0048828125,-0.00396728515625,-0.0018310546875,0.0,-0.0091552734375,-0.0018310546875,-0.0152587890625,-0.00762939453125,-0.0048828125,0.025065308436751366,0.034234315156936646,0.029947509989142418,0.02468780428171158,0.03337402269244194,0.044060058891773224,0.030990906059741974,0.03987213224172592,0.02939758263528347,0.02114105224609375,0.023211060091853142
-0.003662109375,-0.00213623046875,-0.0030517578125,-0.0152587890625,-0.0067138671875,-0.00152587890625,-0.006103515625,0.0,-0.0006103515625,-0.00732421875,-0.01251220703125,-0.00274658203125,0.01373291015625,-0.0030517578125,-0.00274658203125,0.00640869140625,0.00091552734375,-0.00396728515625,-0.00762939453125,-0.0262451171875,-0.00885009765625,-0.003662109375,0.0030517578125,-0.003662109375,0.00213623046875,-0.0018310546875,0.001220703125,-0.00457763671875,-0.0006103515625,-0.0054931640625,-0.00579833984375,0.00152587890625,-0.00213623046875,0.00152587890625,-0.0018310546875,-0.0054931640625,-0.00701904296875,-0.0103759765625,-0.001220703125,-0.0054931640625,0.026133423671126366,0.016228942200541496,0.027506103739142418,0.01812652498483658,0.02513427659869194,0.032768554985523224,0.047470398247241974,0.03559967130422592,0.03626403957605362,0.03258514404296875,0.03267150744795799
-0.00946044921875,-0.00244140625,-0.00152587890625,-0.010986328125,-0.00885009765625,-0.00091552734375,-0.00152587890625,-0.00518798828125,-0.003662109375,-0.0030517578125,-0.01678466796875,-0.00396728515625,-0.0018310546875,0.0,0.0006103515625,-0.0018310546875,-0.0030517578125,-0.006103515625,-0.0048828125,-0.0067138671875,0.001220703125,-0.00152587890625,0.00030517578125,-0.0006103515625,0.00274658203125,-0.01190185546875,-0.00274658203125,-0.0006103515625,0.00213623046875,-0.00640869140625,-0.0067138671875,0.0006103515625,-0.00579833984375,-0.00762939453125,-0.00732421875,0.00396728515625,0.001220703125,-0.0091552734375,-0.020751953125,-0.00091552734375,0.021250611171126366,0.009820251725614071,0.021250000223517418,0.02239898592233658,0.03016967698931694,0.036735840141773224,0.028244324028491974,-0.0005636596470139921,0.03321228176355362,0.01869964599609375,0.027483521029353142
-0.003662109375,0.00091552734375,-0.00579833984375,-0.0091552734375,-0.0048828125,0.00091552734375,-0.0018310546875,-0.00030517578125,0.008544921875,0.0006103515625,-0.0128173828125,-0.0164794921875,-0.00213623046875,-0.0048828125,0.0018310546875,-0.0018310546875,-0.0018310546875,-0.00244140625,-0.00579833984375,0.0,-0.00823974609375,-0.00091552734375,-0.00244140625,-0.0030517578125,0.0006103515625,-0.003662109375,-0.00518798828125,-0.0067138671875,-0.010986328125,-0.0042724609375,-0.00701904296875,-0.00274658203125,-0.0030517578125,-0.00244140625,0.00152587890625,0.00213623046875,-0.00244140625,-0.00030517578125,-0.0054931640625,-0.0018310546875,0.033610228449106216,0.0012753296177834272,0.020792236551642418,0.03094390779733658,0.03657836839556694,0.017814941704273224,0.029922790825366974,0.03666778653860092,0.03794250637292862,0.02709197998046875,0.03145080432295799
-0.00335693359375,0.0006103515625,-0.00091552734375,-0.00823974609375,-0.00244140625,-0.00030517578125,-0.0018310546875,0.00030517578125,-0.0030517578125,-0.00213623046875,-0.01251220703125,-0.00213623046875,-0.00457763671875,-0.0042724609375,-0.0018310546875,-0.00152587890625,-0.0030517578125,-0.00518798828125,-0.00396728515625,-0.003662109375,-0.009765625,-0.0091552734375,-0.0006103515625,-0.008544921875,-0.00457763671875,-0.00518798828125,-0.0054931640625,-0.00640869140625,-0.0042724609375,-0.0006103515625,-0.0018310546875,-0.0042724609375,0.00213623046875,0.0067138671875,-0.00152587890625,-0.00030517578125,-0.0115966796875,-0.00701904296875,-0.0048828125,0.010986328125,0.022318726405501366,0.015160827897489071,0.027811279520392418,0.03292755037546158,0.03108520433306694,0.019188232719898224,0.027328796684741974,0.03270050138235092,0.02054748497903347,0.04341888427734375,0.029924927279353142
-0.0018310546875,-0.00732421875,-0.00244140625,-0.00885009765625,-0.00030517578125,-0.003662109375,-0.00274658203125,-0.00274658203125,-0.006103515625,-0.00457763671875,-0.01861572265625,-0.0030517578125,-0.00274658203125,-0.0048828125,-0.0018310546875,-0.00213623046875,-0.00457763671875,-0.0067138671875,-0.00823974609375,-0.00732421875,-0.0103759765625,-0.00823974609375,-0.00518798828125,0.00091552734375,-0.001220703125,-0.00152587890625,0.0067138671875,0.001220703125,-0.0030517578125,0.00732421875,-0.0079345703125,-0.0048828125,-0.0067138671875,-0.00885009765625,0.001220703125,0.00946044921875,-0.00335693359375,-0.00640869140625,-0.01068115234375,-0.00335693359375,0.042002562433481216,0.033471375703811646,0.029184570536017418,0.02041534334421158,0.03291625902056694,0.038566894829273224,0.046860046684741974,0.02598663419485092,0.01841125451028347,0.05348968505859375,0.021380005404353142
0.00457763671875,-0.00274658203125,-0.00335693359375,-0.00823974609375,-0.0054931640625,-0.00213623046875,-0.0006103515625,-0.00244140625,-0.0091552734375,-0.0079345703125,-0.008544921875,-0.001220703125,-0.0091552734375,-0.0103759765625,-0.01129150390625,-0.0048828125,-0.00274658203125,-0.00457763671875,-0.00335693359375,-0.0042724609375,-0.00701904296875,-0.003662109375,-0.008544921875,-0.00762939453125,-0.00030517578125,-0.00335693359375,-0.008544921875,-0.0048828125,-0.0054931640625,-0.00091552734375,-0.00701904296875,-0.00213623046875,-0.0030517578125,-0.00274658203125,-0.0225830078125,-0.00885009765625,-0.00885009765625,-0.00244140625,-0.006103515625,-0.00640869140625,0.052988890558481216,0.039574891328811646,0.027811279520392418,0.05367950350046158,0.03062744066119194,0.032005615532398224,0.042892761528491974,0.02278228849172592,0.01215515099465847,0.03395843505859375,0.03373962268233299
-0.0054931640625,-0.00457763671875,0.00152587890625,-0.01312255859375,-0.00579833984375,-0.01617431640625,-0.00213623046875,-0.003662109375,-0.01556396484375,-0.02197265625,-0.02471923828125,-0.018310546875,-0.01983642578125,-0.0189208984375,-0.0244140625,-0.01434326171875,-0.0091552734375,-0.00335693359375,-0.0103759765625,0.0006103515625,-0.00579833984375,-0.00274658203125,0.00274658203125,-0.00274658203125,-0.00152587890625,-0.01068115234375,-0.00579833984375,-0.00579833984375,-0.0128173828125,-0.00579833984375,-0.0018310546875,-0.00640869140625,0.0006103515625,-0.01129150390625,-0.0048828125,-0.00640869140625,-0.0048828125,0.0,-0.0054931640625,-0.00274658203125,0.037577513605356216,0.042016297578811646,0.022470703348517418,0.02941802889108658,0.04420776292681694,0.058708496391773224,0.031906433403491974,0.03407379239797592,0.0007110595470294356,0.03365325927734375,0.03480773791670799
-0.00244140625,-0.00152587890625,0.0128173828125,-0.01220703125,-0.00762939453125,0.00640869140625,-0.00152587890625,-0.00335693359375,-0.04302978515625,-0.02532958984375,-0.025634765625,-0.01983642578125,-0.023193359375,-0.0250244140625,-0.0152587890625,-0.01708984375,-0.0042724609375,-0.0115966796875,-0.0115966796875,-0.00396728515625,-0.01220703125,-0.0079345703125,-0.00457763671875,-0.009765625,-0.00396728515625,-0.00091552734375,-0.01678466796875,-0.00823974609375,-0.0054931640625,-0.015869140625,-0.00732421875,-0.006103515625,-0.01068115234375,-0.009765625,-0.0054931640625,-0.010986328125,-0.00946044921875,-0.0079345703125,-0.0152587890625,-0.00762939453125,0.027964478358626366,0.050866395235061646,0.03223632648587227,0.02636627107858658,0.06053466722369194,0.047874756157398224,0.035568542778491974,0.007218322716653347,0.02283630333840847,0.03212738037109375,0.029314575716853142
-0.0042724609375,-0.00335693359375,-0.00274658203125,-0.0103759765625,-0.0067138671875,0.0006103515625,-0.00396728515625,-0.0018310546875,-0.01251220703125,-0.001220703125,-0.01190185546875,0.001220703125,-0.00213623046875,-0.00274658203125,-0.01434326171875,-0.00244140625,-0.0067138671875,-0.001220703125,-0.00640869140625,0.00152587890625,-0.00579833984375,-0.00396728515625,0.0006103515625,-0.00640869140625,-0.00579833984375,-0.00579833984375,-0.0091552734375,-0.00885009765625,-0.01007080078125,-0.00732421875,0.0,-0.0067138671875,0.00213623046875,0.0042724609375,0.00152587890625,0.00091552734375,-0.01129150390625,-0.0018310546875,-0.0042724609375,-0.028076171875,0.035136107355356216,0.038506776094436646,0.023843994364142418,0.03353790193796158,0.012622070498764515,0.037498779594898224,0.044876404106616974,0.04750152677297592,0.01810607872903347,0.04784393310546875,0.03434997424483299
-0.0006103515625,0.0,-0.00030517578125,-0.0115966796875,-0.0042724609375,-0.0042724609375,0.00213623046875,-0.00396728515625,-0.00274658203125,-0.00335693359375,-0.01373291015625,-0.00274658203125,-0.00244140625,-0.00396728515625,-0.00152587890625,-0.00396728515625,-0.00213623046875,0.0018310546875,-0.00396728515625,-0.00640869140625,-0.0048828125,-0.01129150390625,-0.00244140625,-0.0079345703125,0.0048828125,-0.00030517578125,-0.0018310546875,-0.01007080078125,-0.009765625,-0.00396728515625,-0.0006103515625,-0.00579833984375,-0.00457763671875,-0.00457763671875,-0.00244140625,0.0018310546875,-0.0030517578125,-0.00244140625,-0.00457763671875,-0.00335693359375,0.012553100474178791,0.015313415788114071,0.03864501789212227,0.03018096834421158,0.03108520433306694,0.027427978813648224,0.058304138481616974,0.02964874356985092,0.02573547326028347,0.04326629638671875,0.03404479846358299
-0.00030517578125,-0.00244140625,-0.00457763671875,-0.01068115234375,-0.0054931640625,-0.01434326171875,-0.0030517578125,-0.0054931640625,0.00030517578125,-0.00213623046875,-0.0115966796875,-0.0054931640625,-0.0030517578125,-0.0054931640625,0.0006103515625,-0.0048828125,0.00335693359375,0.0042724609375,-0.00518798828125,-0.0103759765625,-0.0079345703125,-0.00732421875,0.0018310546875,-0.0042724609375,-0.00518798828125,-0.00701904296875,-0.0054931640625,-0.00335693359375,-0.003662109375,-0.00518798828125,-0.0030517578125,-0.0103759765625,-0.0054931640625,-0.006103515625,-0.00396728515625,0.00244140625,-0.0006103515625,-0.00091552734375,0.00457763671875,-0.00640869140625,0.015757447108626366,0.036980897188186646,0.04139159992337227,0.03185943514108658,0.04710693284869194,0.06801635771989822,0.031296081840991974,0.02598663419485092,0.02039489708840847,0.03212738037109375,0.03190856799483299
-0.01007080078125,-0.0018310546875,-0.00335693359375,-0.0103759765625,-0.006103515625,-0.003662109375,-0.00213623046875,-0.0042724609375,-0.0030517578125,-0.00335693359375,-0.013427734375,-0.00579833984375,-0.0018310546875,-0.0048828125,-0.0018310546875,-0.00396728515625,-0.00762939453125,-0.00518798828125,-0.00396728515625,-0.01007080078125,-0.00701904296875,-0.0079345703125,-0.01373291015625,-0.0103759765625,-0.00885009765625,0.0006103515625,-0.0091552734375,-0.00335693359375,0.0006103515625,-0.01068115234375,-0.00396728515625,0.003662109375,-0.00274658203125,0.0,-0.00030517578125,-0.00518798828125,-0.00152587890625,-0.001220703125,-0.0006103515625,0.0006103515625,0.031931761652231216,0.031487733125686646,0.023843994364142418,0.02560333162546158,0.03413696214556694,0.026665039360523224,0.046554870903491974,0.02842804044485092,0.01764831505715847,0.03823089599609375,0.030382690951228142
-0.01373291015625,-0.00396728515625,-0.00152587890625,-0.00396728515625,-0.00579833984375,-0.0048828125,0.00946044921875,-0.00274658203125,-0.00396728515625,-0.01434326171875,-0.0152587890625,-0.001220703125,-0.0115966796875,-0.00335693359375,-0.00213623046875,0.01129150390625,-0.00885009765625,-0.00091552734375,-0.00396728515625,-0.00244140625,-0.00091552734375,-0.00823974609375,-0.0128173828125,-0.00701904296875,-0.00732421875,-0.0018310546875,-0.00640869140625,-0.00396728515625,-0.006103515625,-0.008544921875,-0.00335693359375,0.0030517578125,-0.003662109375,-0.0018310546875,0.003662109375,0.0006103515625,-0.00396728515625,0.00091552734375,-0.0006103515625,-0.00732421875,0.032236937433481216,0.043389588594436646,0.03223632648587227,0.03735259920358658,0.02925414964556694,0.036888428032398224,0.044113464653491974,0.03682037442922592,0.02390441857278347,0.03151702880859375,0.023211060091853142
-0.00213623046875,-0.00274658203125,0.0,0.0042724609375,-0.00457763671875,-0.00518798828125,0.0018310546875,-0.00213623046875,-0.0042724609375,-0.00244140625,-0.0115966796875,-0.0030517578125,-0.003662109375,-0.0048828125,-0.0006103515625,-0.00396728515625,-0.0091552734375,0.00274658203125,-0.0042724609375,0.00152587890625,-0.00244140625,-0.00335693359375,-0.01220703125,-0.00640869140625,-0.00518798828125,0.0006103515625,-0.00244140625,-0.00762939453125,-0.00579833984375,-0.0042724609375,-0.0091552734375,0.00091552734375,-0.0054931640625,0.00335693359375,-0.00335693359375,0.00091552734375,-0.001220703125,-0.00518798828125,-0.00640869140625,-0.00213623046875,0.042765501886606216,0.037286072969436646,0.03986572101712227,0.011717834509909153,0.03108520433306694,0.025139160454273224,0.005966491531580687,0.02247711271047592,0.01383361779153347,0.04357147216796875,0.017870483919978142
-0.001220703125,-0.00244140625,-0.00213623046875,-0.008544921875,-0.00579833984375,-0.00823974609375,-0.0042724609375,-0.0018310546875,-0.01495361328125,-0.00335693359375,-0.01312255859375,-0.0103759765625,0.00030517578125,-0.00244140625,-0.00274658203125,-0.0030517578125,0.00152587890625,0.00213623046875,-0.003662109375,-0.01220703125,-0.0018310546875,-0.00335693359375,-0.00244140625,-0.00030517578125,-0.0030517578125,-0.0048828125,-0.00701904296875,-0.0030517578125,-0.0006103515625,-0.0115966796875,-0.0103759765625,-0.00701904296875,-0.0006103515625,0.0006103515625,-0.0030517578125,-0.02777099609375,-0.00579833984375,-0.0054931640625,0.0201416015625,0.00152587890625,0.025980835780501366,0.041711121797561646,0.04062866047024727,0.03536895662546158,0.02879638597369194,0.033378906548023224,0.022293396294116974,0.02324005216360092,0.02604064904153347,0.02068328857421875,0.016192017123103142
-0.00244140625,-0.00244140625,0.0006103515625,-0.010986328125,-0.0018310546875,-0.00091552734375,-0.00274658203125,-0.00152587890625,-0.00946044921875,-0.0067138671875,-0.01068115234375,-0.0018310546875,-0.00762939453125,-0.008544921875,-0.01068115234375,-0.0048828125,-0.006103515625,-0.009765625,-0.0067138671875,-0.0030517578125,-0.0091552734375,-0.0048828125,-0.00335693359375,0.006103515625,-0.00701904296875,-0.0048828125,0.01220703125,-0.006103515625,-0.00030517578125,-0.02227783203125,-0.00762939453125,-0.00213623046875,0.00244140625,-0.00030517578125,0.0018310546875,-0.0030517578125,0.00152587890625,-0.00396728515625,-0.00457763671875,0.00640869140625,0.033152464777231216,0.027215270325541496,0.029642334207892418,0.03094390779733658,0.05626220628619194,0.023613281548023224,0.020309753715991974,0.02705474942922592,0.02527770958840847,0.04357147216796875,0.017565308138728142
-0.003662109375,-0.003662109375,-0.0067138671875,-0.01007080078125,-0.00457763671875,-0.001220703125,-0.001220703125,-0.00396728515625,-0.01739501953125,-0.01983642578125,-0.02593994140625,-0.0091552734375,-0.01983642578125,-0.01861572265625,-0.02166748046875,-0.01495361328125,-0.003662109375,0.0006103515625,-0.00457763671875,0.0006103515625,-0.00030517578125,0.00274658203125,-0.00274658203125,0.0067138671875,0.0006103515625,-0.0042724609375,-0.015869140625,-0.00244140625,-0.0048828125,-0.01434326171875,-0.0048828125,-0.00274658203125,-0.006103515625,-0.00244140625,-0.0042724609375,-0.01007080078125,-0.00213623046875,-0.00457763671875,-0.0054931640625,-0.00091552734375,0.031779173761606216,0.048119813203811646,0.04108642414212227,0.03857330232858658,0.02986450120806694,0.033989258110523224,0.027481384575366974,0.007676086388528347,0.01047668419778347,0.03411102294921875,0.026720581576228142
0.0030517578125,0.0,-0.00213623046875,-0.00457763671875,-0.006103515625,-0.00396728515625,-0.0006103515625,0.0,-0.02349853515625,-0.02197265625,-0.0238037109375,-0.01434326171875,-0.0213623046875,-0.0244140625,-0.02777099609375,-0.0140380859375,-0.006103515625,-0.00640869140625,-0.00701904296875,-0.001220703125,0.00030517578125,-0.0018310546875,-0.00946044921875,-0.00518798828125,-0.00579833984375,-0.00274658203125,-0.00274658203125,-0.0054931640625,-0.0067138671875,-0.009765625,-0.00213623046875,0.00335693359375,0.0,-0.00518798828125,-0.00396728515625,-0.00274658203125,0.00579833984375,-0.00335693359375,-0.00335693359375,-0.00152587890625,0.007365112192928791,0.039422303438186646,0.021707763895392418,0.03018096834421158,0.01933593675494194,0.029259033501148224,0.017257995903491974,0.015458068810403347,0.02909240685403347,0.03304290771484375,0.014818725176155567
-0.0018310546875,0.0030517578125,-0.001220703125,-0.008544921875,-0.00396728515625,-0.00274658203125,-0.00274658203125,-0.00091552734375,0.00030517578125,-0.00457763671875,-0.01312255859375,-0.00335693359375,-0.00335693359375,-0.00091552734375,-0.0079345703125,-0.00335693359375,0.0,-0.0042724609375,-0.0030517578125,0.0079345703125,-0.00732421875,-0.0048828125,-0.01708984375,-0.003662109375,0.00030517578125,-0.00457763671875,-0.001220703125,-0.00244140625,-0.00152587890625,-0.00701904296875,-0.00762939453125,-0.00213623046875,0.003662109375,-0.00030517578125,0.0006103515625,-0.00640869140625,-0.0042724609375,-0.006103515625,0.01678466796875,0.0030517578125,0.030405884608626366,0.029809264466166496,0.025369873270392418,0.02606109529733658,0.02345580980181694,0.012932129204273224,0.024734802544116974,0.03743072599172592,0.00940856896340847,0.02144622802734375,0.029924927279353142
-0.00091552734375,0.00030517578125,-0.00762939453125,-0.008544921875,-0.0079345703125,-0.00213623046875,-0.00091552734375,-0.00457763671875,-0.003662109375,-0.0030517578125,-0.01434326171875,-0.00335693359375,0.00030517578125,-0.00335693359375,-0.00213623046875,-0.00091552734375,-0.00244140625,-0.00213623046875,-0.003662109375,-0.0006103515625,-0.00946044921875,-0.00518798828125,-0.0048828125,-0.0103759765625,-0.00335693359375,-0.006103515625,-0.008544921875,-0.00518798828125,-0.0030517578125,0.00030517578125,0.0,-0.001220703125,-0.00091552734375,-0.0018310546875,-0.0006103515625,0.00091552734375,-0.0030517578125,-0.0067138671875,-0.00457763671875,-0.00396728515625,0.029185181483626366,0.016686705872416496,0.026132812723517418,0.02331451326608658,0.02666015550494194,0.014915771782398224,0.025955505669116974,0.02308746427297592,0.04877624660730362,0.02007293701171875,0.023821411654353142
-0.003662109375,-0.0006103515625,-0.00244140625,-0.008544921875,-0.00244140625,-0.003662109375,-0.001220703125,0.0,-0.0042724609375,-0.00030517578125,-0.01434326171875,-0.00457763671875,-0.001220703125,-0.0042724609375,-0.0030517578125,-0.0018310546875,-0.00152587890625,-0.00518798828125,-0.006103515625,0.00030517578125,-0.0091552734375,-0.00518798828125,-0.0030517578125,-0.006103515625,-0.001220703125,-0.00213623046875,-0.003662109375,-0.00579833984375,-0.0030517578125,-0.0048828125,-0.006103515625,0.00030517578125,-0.00396728515625,-0.00457763671875,0.00152587890625,-0.0067138671875,-0.00335693359375,-0.00335693359375,-0.0067138671875,-0.0006103515625,0.019114380702376366,0.0026486206334084272,0.026285400614142418,0.015227355994284153,0.02162475511431694,0.022545166313648224,0.036789245903491974,0.03178497403860092,0.02726135216653347,0.00206756591796875,0.018480835482478142
-0.001220703125,-0.00091552734375,-0.0006103515625,-0.0091552734375,-0.0048828125,-0.001220703125,-0.00274658203125,0.0048828125,-0.00335693359375,-0.0018310546875,-0.01068115234375,-0.0018310546875,-0.0030517578125,-0.01068115234375,-0.00244140625,-0.0018310546875,-0.00091552734375,-0.00213623046875,-0.00518798828125,-0.00579833984375,-0.0091552734375,-0.00030517578125,-0.00091552734375,-0.00244140625,-0.00213623046875,-0.003662109375,-0.0048828125,-0.00274658203125,-0.00518798828125,0.00152587890625,0.00518798828125,-0.00091552734375,-0.0018310546875,-0.00579833984375,-0.00640869140625,-0.00244140625,-0.00091552734375,-0.00152587890625,-0.006103515625,-0.0042724609375,0.005686645396053791,0.015008240006864071,0.028879394754767418,0.02896026521921158,0.008959961123764515,0.015373535454273224,0.030533142387866974,0.03270050138235092,0.04587707668542862,-0.01990509033203125,0.023973999544978142
-0.003662109375,-0.00396728515625,-0.0042724609375,-0.00823974609375,-0.00152587890625,-0.001220703125,-0.00244140625,0.001220703125,-0.00396728515625,0.0,-0.0250244140625,-0.00335693359375,-0.0030517578125,-0.00335693359375,0.00030517578125,-0.0006103515625,-0.0018310546875,-0.0042724609375,-0.00396728515625,-0.00762939453125,-0.008544921875,-0.00579833984375,0.003662109375,0.0006103515625,0.00152587890625,-0.03082275390625,-0.00579833984375,-0.0042724609375,-0.00518798828125,-0.0048828125,-0.00885009765625,-0.00823974609375,0.0,0.0006103515625,-0.00091552734375,0.0030517578125,-0.00457763671875,0.00274658203125,-0.01007080078125,0.0,0.030253296718001366,0.015160827897489071,0.027963867411017418,0.03140167146921158,0.011859131045639515,0.026970215141773224,0.037857361137866974,0.04109283536672592,0.02649841271340847,-0.00800323486328125,0.03434997424483299
-0.00244140625,-0.00152587890625,-0.0006103515625,-0.00823974609375,-0.0054931640625,-0.00579833984375,-0.0146484375,0.0006103515625,-0.00244140625,-0.00457763671875,-0.015869140625,-0.00335693359375,-0.00732421875,-0.0030517578125,-0.00091552734375,-0.00213623046875,0.006103515625,-0.00030517578125,-0.001220703125,0.00701904296875,-0.0006103515625,-0.00518798828125,-0.00457763671875,-0.00518798828125,-0.00579833984375,-0.00732421875,-0.00396728515625,-0.00732421875,-0.00732421875,-0.0091552734375,-0.00152587890625,-0.00244140625,-0.001220703125,0.00152587890625,-0.0006103515625,-0.00457763671875,-0.00030517578125,-0.00274658203125,0.0006103515625,-0.0054931640625,0.029948120936751366,0.038811951875686646,0.03544067218899727,0.04055694490671158,0.03352661058306694,0.024376221001148224,0.041977234184741974,0.03849884122610092,0.03840027004480362,-0.00434112548828125,0.021227417513728142
0.00152587890625,-0.00030517578125,0.00030517578125,-0.010986328125,-0.00457763671875,-0.00244140625,-0.00457763671875,-0.00244140625,-0.0030517578125,-0.00152587890625,-0.013427734375,-0.00335693359375,-0.003662109375,-0.003662109375,-0.00335693359375,-0.00091552734375,-0.0067138671875,-0.01617431640625,-0.00457763671875,-0.0067138671875,-0.01708984375,-0.003662109375,-0.00701904296875,-0.01953125,0.00030517578125,-0.00457763671875,0.0006103515625,0.0030517578125,-0.0067138671875,-0.001220703125,0.00335693359375,-0.00701904296875,-0.0042724609375,0.00152587890625,-0.0048828125,-0.013427734375,-0.0030517578125,-0.00579833984375,-0.00213623046875,-0.00274658203125,0.039408568292856216,0.047051697969436646,0.03360961750149727,0.03155425935983658,0.03123779222369194,0.023155517876148224,0.026413269340991974,0.015458068810403347,0.04465637356042862,-0.01883697509765625,0.030230103060603142
-0.003662109375,-0.01007080078125,0.00030517578125,-0.00823974609375,-0.00640869140625,-0.00579833984375,-0.003662109375,-0.00396728515625,-0.00732421875,-0.009765625,-0.01068115234375,-0.001220703125,-0.00701904296875,-0.0079345703125,-0.00823974609375,-0.006103515625,-0.00274658203125,-0.0048828125,-0.00732421875,-0.00579833984375,-0.0091552734375,0.0018310546875,-0.0030517578125,-0.003662109375,0.00946044921875,0.00030517578125,-0.0054931640625,-0.00518798828125,-0.01220703125,-0.00579833984375,-0.01068115234375,-0.00335693359375,0.00030517578125,-0.00823974609375,-0.00152587890625,-0.00762939453125,-0.00701904296875,-0.00640869140625,0.0006103515625,-0.00457763671875,0.036661986261606216,0.038201600313186646,0.026590576395392418,0.03277496248483658,0.008807373233139515,0.027733154594898224,0.026565857231616974,0.02278228849172592,0.03824768215417862,0.02602386474609375,0.027025757357478142
-0.00732421875,-0.0030517578125,-0.00335693359375,-0.015869140625,-0.00335693359375,-0.0018310546875,0.00762939453125,-0.003662109375,-0.02349853515625,-0.020751953125,-0.025634765625,-0.0146484375,-0.0201416015625,-0.02197265625,-0.0250244140625,-0.0177001953125,-0.00244140625,0.00213623046875,-0.013427734375,-0.00640869140625,-0.00579833984375,-0.00762939453125,-0.0042724609375,-0.009765625,-0.00091552734375,-0.00701904296875,-0.00885009765625,-0.00701904296875,0.00274658203125,0.0,-0.0030517578125,-0.01556396484375,-0.0030517578125,-0.0030517578125,0.00091552734375,-0.00213623046875,-0.008544921875,-0.00335693359375,-0.00885009765625,-0.0067138671875,0.043528441339731216,0.026147155091166496,0.027811279520392418,0.007750549353659153,0.02360839769244194,0.027580566704273224,0.021835632622241974,0.03468414396047592,0.03855285793542862,0.10323333740234375,0.03358703479170799
-0.00457763671875,-0.0018310546875,-0.003662109375,-0.0091552734375,-0.0018310546875,-0.00335693359375,-0.00244140625,-0.00244140625,-0.02471923828125,-0.0238037109375,-0.02838134765625,-0.015869140625,-0.02197265625,-0.029296875,-0.02532958984375,-0.01708984375,-0.0018310546875,0.0054931640625,-0.00244140625,-0.0067138671875,-0.02899169921875,-0.010986328125,-0.0067138671875,0.00762939453125,-0.0042724609375,-0.00030517578125,-0.00091552734375,0.00152587890625,-0.0018310546875,-0.0054931640625,-0.00457763671875,-0.0079345703125,-0.0018310546875,-0.00213623046875,-0.00091552734375,0.0018310546875,-0.00762939453125,-0.0030517578125,-0.0042724609375,-0.0054931640625,0.014994506724178791,0.026757506653666496,0.028574218973517418,0.02941802889108658,0.03535766527056694,0.025291748344898224,0.030380554497241974,0.02293487638235092,0.03473816066980362,0.11803436279296875,0.03755431994795799
-0.003662109375,-0.00335693359375,-0.00213623046875,-0.01068115234375,-0.00518798828125,0.0006103515625,-0.00213623046875,-0.00274658203125,0.00030517578125,-0.00579833984375,-0.0140380859375,-0.00335693359375,-0.00335693359375,-0.006103515625,-0.00274658203125,-0.0054931640625,-0.00091552734375,-0.0006103515625,-0.00396728515625,-0.00640869140625,0.0006103515625,-0.006103515625,0.00152587890625,0.0006103515625,-0.0030517578125,0.00579833984375,-0.001220703125,-0.0018310546875,0.00244140625,-0.010986328125,-0.003662109375,0.00274658203125,-0.006103515625,-0.00030517578125,-0.00244140625,-0.00762939453125,-0.00213623046875,-0.0048828125,-0.00091552734375,-0.003662109375,0.025828247889876366,0.026604918763041496,0.024301758036017418,0.01644805818796158,0.02284545823931694,0.029411621391773224,0.022598572075366974,0.03682037442922592,0.02970275841653347,0.05638885498046875,0.07005554437637329
-0.00244140625,-0.0042724609375,-0.013427734375,-0.01190185546875,-0.00579833984375,0.00640869140625,-0.0018310546875,-0.0048828125,-0.00701904296875,-0.001220703125,-0.01190185546875,-0.00885009765625,-0.0018310546875,-0.00457763671875,-0.00091552734375,-0.00518798828125,-0.00579833984375,0.0030517578125,-0.00518798828125,-0.00335693359375,-0.00640869140625,-0.00762939453125,-0.0018310546875,-0.00579833984375,-0.00213623046875,-0.0042724609375,0.00091552734375,0.00091552734375,-0.00732421875,-0.00701904296875,-0.00518798828125,-0.0128173828125,-0.00732421875,-0.00457763671875,0.0006103515625,0.00152587890625,-0.00152587890625,-0.0054931640625,-0.0030517578125,-0.00885009765625,0.033152464777231216,0.041863709688186646,0.029031982645392418,0.03002838045358658,0.03123779222369194,0.038719482719898224,0.033890075981616974,0.02659698575735092,0.02329406701028347,0.03304290771484375,0.03404479846358299
-0.00335693359375,-0.00152587890625,-0.00091552734375,-0.00946044921875,-0.00579833984375,-0.00457763671875,-0.0067138671875,-0.00091552734375,-0.00244140625,-0.008544921875,-0.013427734375,-0.00396728515625,-0.01983642578125,-0.00396728515625,-0.003662109375,-0.003662109375,-0.009765625,-0.003662109375,-0.00457763671875,-0.00335693359375,-0.00152587890625,-0.00579833984375,0.001220703125,-0.00518798828125,0.0006103515625,-0.00152587890625,-0.00274658203125,-0.01251220703125,-0.0103759765625,-0.00701904296875,-0.0030517578125,-0.0079345703125,-0.00640869140625,-0.00274658203125,-0.0067138671875,-0.00579833984375,-0.00579833984375,-0.0042724609375,-0.00335693359375,-0.0067138671875,0.026438599452376366,0.018212584778666496,0.020639648661017418,0.03338531404733658,0.02086181566119194,0.034599609673023224,0.039383240044116974,0.015458068810403347,0.02192077599465847,0.04357147216796875,0.03312927111983299
-0.00213623046875,-0.00823974609375,-0.00244140625,-0.01068115234375,0.00274658203125,-0.003662109375,-0.00091552734375,-0.01007080078125,-0.00579833984375,-0.00457763671875,-0.02166748046875,-0.00244140625,-0.001220703125,-0.003662109375,0.0,-0.00244140625,-0.00640869140625,-0.001220703125,-0.00396728515625,0.00152587890625,-0.00274658203125,-0.0030517578125,-0.01220703125,-0.006103515625,0.0018310546875,-0.00274658203125,-0.00244140625,0.00091552734375,-0.00030517578125,-0.00885009765625,-0.01953125,-0.0054931640625,-0.0067138671875,0.0079345703125,-0.003662109375,-0.00030517578125,0.0018310546875,-0.00213623046875,-0.00518798828125,-0.00152587890625,0.029948120936751366,0.004632262978702784,0.022928467020392418,0.02041534334421158,0.02467651292681694,0.038872070610523224,0.036941833794116974,0.05345245450735092,0.03855285793542862,0.03227996826171875,0.029619751498103142
-0.020751953125,-0.003662109375,-0.00396728515625,-0.015869140625,-0.00579833984375,-0.0030517578125,0.00244140625,-0.00518798828125,-0.0048828125,-0.00762939453125,-0.013427734375,-0.0042724609375,0.0054931640625,-0.0042724609375,-0.00213623046875,-0.00030517578125,-0.00823974609375,-0.00579833984375,-0.015869140625,-0.0006103515625,-0.0042724609375,-0.00579833984375,-0.00030517578125,-0.00213623046875,0.0018310546875,0.00396728515625,-0.00579833984375,0.00091552734375,0.00091552734375,-0.0067138671875,-0.00274658203125,-0.00152587890625,-0.0030517578125,0.0030517578125,-0.0030517578125,0.00091552734375,-0.00091552734375,-0.00885009765625,-0.001220703125,0.00701904296875,0.037577513605356216,0.007073669228702784,0.019113769754767418,0.03521636873483658,0.02879638597369194,-0.016212157905101776,0.035263366997241974,0.03285308927297592,0.03092346154153347,0.03456878662109375,0.04381042346358299
-0.01007080078125,-0.00274658203125,-0.00335693359375,-0.0030517578125,-0.00518798828125,-0.00518798828125,-0.00335693359375,-0.0030517578125,-0.00244140625,-0.00946044921875,-0.0146484375,-0.00244140625,0.01007080078125,-0.00396728515625,-0.001220703125,-0.001220703125,-0.00152587890625,0.0006103515625,-0.003662109375,-0.01983642578125,-0.0048828125,-0.0067138671875,-0.0115966796875,-0.00579833984375,-0.003662109375,0.009765625,-0.00396728515625,-0.001220703125,0.003662109375,-0.0018310546875,-0.00640869140625,-0.006103515625,-0.00244140625,-0.00946044921875,-0.0048828125,-0.0054931640625,-0.0006103515625,-0.00579833984375,-0.0030517578125,0.00030517578125,0.021708374843001366,0.005700378213077784,0.029794922098517418,0.02850250154733658,0.03474731370806694,0.035667724907398224,0.033737488090991974,0.04094024747610092,0.04984436184167862,0.04738616943359375,0.05052429065108299
-0.001220703125,-0.00335693359375,-0.015869140625,-0.0103759765625,-0.00457763671875,-0.0079345703125,-0.0018310546875,-0.00335693359375,-0.00244140625,-0.00274658203125,-0.01251220703125,-0.00335693359375,0.00152587890625,-0.003662109375,-0.003662109375,0.006103515625,-0.00244140625,-0.00152587890625,-0.0079345703125,-0.00762939453125,0.00335693359375,0.0054931640625,-0.00518798828125,0.00274658203125,-0.0042724609375,-0.00091552734375,-0.0030517578125,-0.00396728515625,-0.0048828125,-0.0079345703125,-0.0128173828125,-0.0067138671875,-0.0042724609375,-0.00030517578125,0.00030517578125,-0.0048828125,-0.00579833984375,-0.008544921875,0.0,0.0054931640625,0.021860962733626366,0.022942809388041496,0.04459594562649727,0.01949981600046158,0.03795165941119194,0.029411621391773224,0.040146179497241974,0.03163238614797592,0.03305969387292862,0.02388763427734375,0.0041375732980668545
-0.00396728515625,-0.00274658203125,-0.00091552734375,-0.0091552734375,0.00885009765625,-0.0030517578125,-0.0030517578125,-0.009765625,-0.008544921875,-0.008544921875,-0.01220703125,-0.0048828125,-0.00732421875,-0.00946044921875,-0.009765625,-0.0042724609375,-0.00244140625,-0.00213623046875,0.0006103515625,-0.00030517578125,-0.00396728515625,-0.02288818359375,-0.009765625,-0.00335693359375,0.0128173828125,-0.00335693359375,-0.0006103515625,-0.00518798828125,-0.0042724609375,-0.01007080078125,-0.00640869140625,0.0006103515625,0.00244140625,-0.0006103515625,-0.003662109375,-0.006103515625,-0.0018310546875,0.00091552734375,0.00213623046875,0.0042724609375,0.021098023280501366,0.004937438759952784,0.03193115070462227,0.011107482947409153,0.05183715745806694,0.038414306938648224,0.025802917778491974,0.001419982872903347,0.03138122707605362,0.02449798583984375,0.025194702669978142
-0.00244140625,-0.00030517578125,-0.00152587890625,-0.00823974609375,-0.00244140625,-0.00457763671875,0.00030517578125,-0.00152587890625,-0.01861572265625,-0.01922607421875,-0.02349853515625,-0.0146484375,-0.01739501953125,-0.01922607421875,-0.0262451171875,-0.01373291015625,-0.0054931640625,-0.00946044921875,-0.00885009765625,-0.00396728515625,-0.009765625,-0.00457763671875,-0.00091552734375,-0.0091552734375,-0.00396728515625,-0.0042724609375,-0.003662109375,-0.00579833984375,-0.00762939453125,-0.0054931640625,-0.01068115234375,-0.00701904296875,-0.00701904296875,-0.00823974609375,-0.00640869140625,-0.00762939453125,-0.0067138671875,-0.00579833984375,-0.00762939453125,-0.0091552734375,0.019114380702376366,0.013787536881864071,0.020334472879767418,0.02850250154733658,0.04039306566119194,0.038719482719898224,0.026413269340991974,0.013779602013528347,0.02558288536965847,0.02297210693359375,0.030230103060603142
-0.00335693359375,-0.006103515625,-0.00335693359375,-0.00946044921875,-0.006103515625,-0.0006103515625,-0.0018310546875,-0.00335693359375,-0.02227783203125,-0.02227783203125,-0.02777099609375,-0.01678466796875,-0.02197265625,-0.02166748046875,-0.025634765625,-0.01708984375,0.00213623046875,0.001220703125,0.00091552734375,-0.0006103515625,-0.01129150390625,0.0006103515625,-0.00946044921875,-0.001220703125,-0.0042724609375,-0.006103515625,-0.0079345703125,-0.0091552734375,-0.00396728515625,0.00091552734375,-0.00762939453125,0.0018310546875,0.010986328125,-0.00091552734375,-0.00091552734375,-0.0054931640625,0.00152587890625,-0.00946044921875,-0.00335693359375,0.00030517578125,0.026438599452376366,0.026452330872416496,0.03406738117337227,0.02087310701608658,0.04405517503619194,0.037803955376148224,0.018020935356616974,0.03300567716360092,0.02588806115090847,0.02648162841796875,0.027330933138728142
-0.0042724609375,-0.0006103515625,0.01068115234375,-0.008544921875,-0.0079345703125,-0.00640869140625,-0.001220703125,0.0006103515625,-0.003662109375,-0.00335693359375,-0.0128173828125,-0.00213623046875,-0.00335693359375,-0.0030517578125,-0.00152587890625,-0.00244140625,-0.003662109375,-0.003662109375,-0.006103515625,-0.0067138671875,-0.00518798828125,-0.00213623046875,-0.00640869140625,-0.00152587890625,-0.00457763671875,-0.00213623046875,-0.01739501953125,-0.00518798828125,-0.0048828125,-0.0152587890625,-0.0042724609375,0.0018310546875,-0.003662109375,-0.001220703125,-0.00091552734375,-0.00091552734375,-0.00579833984375,-0.0128173828125,-0.00457763671875,0.01251220703125,0.026743775233626366,0.023400573059916496,0.011026611551642418,0.03109649568796158,0.03596801683306694,0.058098144829273224,0.038009949028491974,0.03361602872610092,0.04496154934167862,0.02632904052734375,0.028551636263728142
-0.0042724609375,-0.00396728515625,-0.00244140625,-0.01007080078125,-0.01556396484375,-0.00335693359375,-0.00335693359375,-0.006103515625,-0.00396728515625,-0.0018310546875,-0.0140380859375,-0.00335693359375,-0.00518798828125,-0.0030517578125,0.00152587890625,-0.0018310546875,-0.0048828125,-0.0067138671875,-0.0054931640625,-0.00885009765625,-0.006103515625,-0.00335693359375,-0.00396728515625,-0.008544921875,-0.0042724609375,-0.006103515625,-0.001220703125,-0.0030517578125,-0.00518798828125,-0.003662109375,-0.0054931640625,-0.0030517578125,0.00213623046875,-0.00091552734375,0.0006103515625,-0.00335693359375,-0.006103515625,0.00732421875,-0.003662109375,-0.001220703125,0.023997193202376366,0.020348815247416496,0.026743164286017418,0.02834991365671158,0.03901977464556694,0.024223633110523224,0.030685730278491974,0.03727813810110092,0.03489074856042862,0.03121185302734375,0.03160339221358299
-0.00762939453125,-0.00213623046875,-0.0018310546875,-0.0054931640625,-0.00732421875,-0.0018310546875,0.0006103515625,-0.00335693359375,-0.00274658203125,0.00396728515625,-0.013427734375,-0.00213623046875,-0.00823974609375,-0.0018310546875,-0.00152587890625,-0.00457763671875,-0.00213623046875,0.001220703125,0.0079345703125,-0.003662109375,-0.0048828125,-0.00579833984375,-0.001220703125,-0.008544921875,-0.00244140625,-0.00152587890625,-0.00335693359375,-0.0054931640625,-0.00335693359375,-0.00457763671875,-0.00640869140625,-0.00335693359375,-0.001220703125,-0.0048828125,-0.00213623046875,-0.006103515625,-0.0054931640625,-0.0018310546875,-0.01068115234375,-0.0042724609375,0.030405884608626366,0.023858336731791496,0.04718993976712227,0.02316192537546158,0.03398437425494194,-0.010718993842601776,0.024734802544116974,0.01896759122610092,0.03443298488855362,0.02968597412109375,0.017565308138728142
-0.00518798828125,-0.00152587890625,-0.0006103515625,-0.00579833984375,-0.00579833984375,-0.00396728515625,0.00152587890625,-0.001220703125,-0.0048828125,0.00274658203125,-0.01220703125,-0.0030517578125,-0.003662109375,-0.0030517578125,-0.00274658203125,-0.00640869140625,-0.00213623046875,-0.003662109375,0.0006103515625,-0.003662109375,-0.00823974609375,-0.0115966796875,-0.00274658203125,-0.006103515625,-0.00640869140625,-0.0067138671875,-0.00152587890625,0.01190185546875,-0.0091552734375,-0.003662109375,-0.001220703125,-0.0079345703125,-0.00152587890625,-0.00579833984375,0.001220703125,-0.00244140625,-0.00335693359375,0.001220703125,-0.0030517578125,-0.00732421875,0.032694701105356216,0.033929139375686646,0.03162597492337227,0.03323272615671158,0.03581542894244194,0.044670410454273224,0.037094421684741974,0.01759430021047592,0.02390441857278347,0.02709197998046875,0.03511291369795799
-0.00244140625,-0.00244140625,0.0,-0.0091552734375,-0.003662109375,0.00762939453125,-0.001220703125,0.0,-0.00274658203125,-0.003662109375,-0.0103759765625,-0.00396728515625,-0.0030517578125,-0.00244140625,-0.00335693359375,-0.0018310546875,-0.00640869140625,-0.00335693359375,-0.00213623046875,-0.0018310546875,-0.00640869140625,-0.0042724609375,-0.00579833984375,-0.00335693359375,0.00091552734375,-0.00274658203125,-0.00091552734375,-0.00732421875,-0.0018310546875,0.00701904296875,-0.001220703125,-0.00335693359375,-0.00640869140625,-0.00640869140625,0.00213623046875,-0.0018310546875,-0.00091552734375,-0.00823974609375,-0.003662109375,0.0,0.032084349542856216,0.038201600313186646,0.021860351786017418,0.02972320467233658,0.03062744066119194,0.040855713188648224,0.032821960747241974,0.03300567716360092,0.01902160607278347,0.02419281005859375,0.024736938998103142
-0.0030517578125,-0.0030517578125,-0.00396728515625,-0.009765625,-0.0030517578125,-0.00213623046875,-0.0018310546875,0.0054931640625,-0.00152587890625,-0.0042724609375,-0.0030517578125,-0.00274658203125,-0.00335693359375,-0.0018310546875,-0.0030517578125,-0.00335693359375,-0.006103515625,-0.003662109375,-0.00274658203125,-0.00274658203125,-0.003662109375,-0.0091552734375,-0.00457763671875,-0.01068115234375,-0.00244140625,-0.00274658203125,-0.0006103515625,-0.00274658203125,-0.0079345703125,-0.0054931640625,-0.00518798828125,0.0030517578125,0.003662109375,-0.003662109375,-0.0115966796875,-0.003662109375,-0.00274658203125,-0.0006103515625,-0.00396728515625,-0.00457763671875,0.027506714686751366,0.035455018281936646,0.030100097879767418,0.03491119295358658,0.05839843675494194,0.037498779594898224,0.033279724419116974,0.06764312833547592,0.03260193020105362,0.02205657958984375,0.03724914416670799
-0.003662109375,-0.00335693359375,-0.0048828125,-0.01129150390625,-0.00732421875,-0.00396728515625,-0.00274658203125,0.0018310546875,-0.0030517578125,-0.001220703125,-0.01800537109375,-0.00274658203125,-0.0030517578125,0.0,-0.00274658203125,-0.00244140625,-0.00213623046875,-0.00244140625,-0.001220703125,-0.00213623046875,-0.00701904296875,-0.003662109375,-0.00091552734375,-0.00823974609375,0.0,-0.00579833984375,-0.00213623046875,-0.0048828125,-0.01007080078125,-0.006103515625,-0.0091552734375,-0.01007080078125,-0.00701904296875,-0.01007080078125,-0.0030517578125,-0.00640869140625,-0.008544921875,-0.0048828125,0.0006103515625,-0.006103515625,0.040934447199106216,0.025536803528666496,0.03498290851712227,0.02026275545358658,0.03856201097369194,0.033073730766773224,0.039688415825366974,0.03254791349172592,0.03000793419778347,0.03227996826171875,0.025805054232478142
-0.00335693359375,-0.00885009765625,-0.00274658203125,-0.0103759765625,-0.0115966796875,-0.001220703125,-0.0030517578125,-0.008544921875,-0.00732421875,-0.00885009765625,-0.010986328125,-0.00213623046875,-0.0067138671875,-0.0201416015625,-0.01434326171875,-0.0079345703125,-0.0079345703125,0.00091552734375,-0.008544921875,-0.0067138671875,-0.00640869140625,-0.010986328125,-0.00732421875,-0.00762939453125,-0.006103515625,-0.0048828125,-0.0048828125,-0.0054931640625,-0.003662109375,-0.00396728515625,-0.00335693359375,0.001220703125,-0.00335693359375,-0.001220703125,-0.00244140625,-0.00457763671875,-0.00274658203125,-0.0048828125,0.00274658203125,0.001220703125,0.015757447108626366,0.021264342591166496,0.03910278156399727,0.01812652498483658,0.02971191331744194,0.022697754204273224,0.014664001762866974,0.03621002286672592,0.00788269005715847,0.01412200927734375,0.027788696810603142
-0.00335693359375,-0.0042724609375,-0.0048828125,-0.0091552734375,-0.0067138671875,-0.0054931640625,-0.0006103515625,-0.00396728515625,-0.02349853515625,-0.0213623046875,-0.02655029296875,-0.01312255859375,-0.02410888671875,-0.02044677734375,-0.0244140625,-0.00946044921875,-0.01251220703125,-0.00274658203125,-0.0030517578125,-0.0067138671875,-0.00732421875,-0.010986328125,-0.00457763671875,-0.0091552734375,0.001220703125,-0.00518798828125,-0.00732421875,-0.0067138671875,-0.00732421875,0.00030517578125,0.0018310546875,-0.00457763671875,-0.0042724609375,-0.00823974609375,-0.001220703125,-0.001220703125,-0.00396728515625,-0.00701904296875,-0.00762939453125,-0.0048828125,0.023386841639876366,0.027215270325541496,0.03666137531399727,0.04925445467233658,0.03779907152056694,0.023613281548023224,0.033737488090991974,0.02720733731985092,0.02527770958840847,0.03441619873046875,0.030840454623103142
-0.00030517578125,-0.0018310546875,-0.0006103515625,-0.01007080078125,-0.006103515625,-0.0054931640625,-0.0030517578125,-0.001220703125,-0.025634765625,-0.020751953125,-0.02410888671875,-0.01617431640625,-0.0201416015625,-0.0152587890625,-0.02655029296875,-0.01678466796875,-0.0115966796875,-0.0054931640625,-0.0030517578125,-0.0030517578125,-0.00396728515625,0.00152587890625,-0.00274658203125,-0.00335693359375,-0.00244140625,0.0,-0.00579833984375,0.00091552734375,-0.003662109375,-0.0067138671875,-0.0054931640625,-0.00030517578125,-0.001220703125,-0.00152587890625,-0.0030517578125,-0.006103515625,-0.009765625,0.0091552734375,-0.0030517578125,-0.00457763671875,0.040171507745981216,0.054681092500686646,0.03513549640774727,0.04757598787546158,0.04069824144244194,0.026054687798023224,0.026718445122241974,0.02430816739797592,0.02283630333840847,0.03014373779296875,0.030993042513728142
-0.00213623046875,-0.001220703125,0.00091552734375,-0.0091552734375,-0.00457763671875,0.0006103515625,-0.00518798828125,-0.00213623046875,0.00091552734375,-0.0042724609375,-0.0128173828125,-0.003662109375,-0.00213623046875,-0.0042724609375,-0.01556396484375,-0.00213623046875,-0.003662109375,-0.00335693359375,-0.00885009765625,-0.00518798828125,-0.0079345703125,-0.01068115234375,-0.01129150390625,-0.00579833984375,0.0,-0.00518798828125,-0.00213623046875,0.00152587890625,-0.0018310546875,-0.00274658203125,0.01007080078125,0.0054931640625,-0.00274658203125,-0.015869140625,-0.00244140625,-0.0042724609375,-0.00640869140625,-0.00732421875,-0.006103515625,-0.02288818359375,0.021250611171126366,0.025384215638041496,0.022470703348517418,0.03308013826608658,0.04313964769244194,0.030784912407398224,0.021225281059741974,0.05146881192922592,0.03382263332605362,0.02541351318359375,0.024431763216853142
0.0006103515625,-0.0067138671875,-0.001220703125,0.00396728515625,-0.00640869140625,-0.0030517578125,-0.02166748046875,-0.0030517578125,-0.00457763671875,-0.00762939453125,-0.0128173828125,-0.00335693359375,0.01251220703125,-0.00335693359375,-0.00274658203125,0.01251220703125,-0.00244140625,-0.00244140625,0.00396728515625,-0.00030517578125,0.001220703125,0.001220703125,0.0,0.00152587890625,0.00396728515625,0.0030517578125,0.0,0.0030517578125,0.00244140625,-0.00396728515625,0.0,-0.00244140625,-0.00244140625,0.0018310546875,0.00091552734375,-0.00091552734375,-0.00213623046875,-0.00457763671875,-0.00213623046875,0.0048828125,0.020335083827376366,0.06261566281318665,0.023996582254767418,0.03552154451608658,0.02376098558306694,-0.007056884933263063,0.026108093559741974,0.03712555021047592,0.01322326622903347,0.01580047607421875,0.026415405794978142
0.00244140625,-0.00396728515625,0.0006103515625,-0.00335693359375,-0.003662109375,-0.00244140625,0.0140380859375,-0.0042724609375,-0.00457763671875,0.00457763671875,-0.0146484375,-0.0048828125,0.010986328125,-0.003662109375,-0.0018310546875,-0.00244140625,-0.01068115234375,0.00091552734375,-0.00335693359375,-0.0006103515625,-0.00457763671875,-0.00244140625,-0.0054931640625,-0.00579833984375,-0.00701904296875,-0.0042724609375,-0.00274658203125,-0.00091552734375,-0.003662109375,0.00152587890625,-0.009765625,-0.0079345703125,0.0018310546875,-0.00457763671875,-0.00030517578125,-0.00274658203125,-0.00213623046875,-0.00732421875,0.0006103515625,-0.00091552734375,0.007212524302303791,0.053460389375686646,0.04551147297024727,0.02087310701608658,0.03489990159869194,0.028190918266773224,0.015884704887866974,0.02262970060110092,0.02726135216653347,0.01885223388671875,0.022142944857478142
-0.0048828125,-0.00274658203125,-0.0030517578125,-0.009765625,-0.00457763671875,-0.00213623046875,-0.00213623046875,-0.00396728515625,-0.00152587890625,-0.01617431640625,-0.01373291015625,-0.00335693359375,0.00946044921875,-0.0030517578125,-0.00274658203125,-0.00152587890625,-0.006103515625,-0.003662109375,-0.00885009765625,-0.0006103515625,-0.00213623046875,-0.0091552734375,-0.0048828125,-0.00244140625,-0.01312255859375,-0.00732421875,-0.00885009765625,-0.01556396484375,-0.00518798828125,-0.00732421875,-0.0067138671875,-0.00274658203125,-0.00152587890625,-0.00152587890625,-0.0048828125,-0.00518798828125,-0.00640869140625,-0.00030517578125,0.00335693359375,0.00152587890625,0.019419556483626366,0.035760194063186646,0.03177856281399727,0.02361968904733658,0.03505248948931694,0.031700439751148224,0.027939148247241974,0.03788848966360092,0.02924499474465847,0.01930999755859375,0.028856812044978142
-0.00396728515625,-0.00091552734375,-0.0091552734375,-0.010986328125,-0.00518798828125,-0.0048828125,-0.0006103515625,-0.001220703125,-0.0054931640625,-0.00213623046875,-0.01373291015625,-0.00579833984375,-0.00091552734375,-0.0018310546875,-0.0018310546875,-0.00274658203125,-0.0030517578125,-0.0067138671875,-0.0018310546875,-0.0067138671875,-0.0006103515625,-0.003662109375,-0.0115966796875,-0.0042724609375,-0.00701904296875,-0.0091552734375,-0.006103515625,-0.0067138671875,-0.00091552734375,-0.008544921875,-0.0054931640625,0.0067138671875,0.00213623046875,0.00030517578125,-0.01495361328125,-0.00091552734375,-0.001220703125,-0.0140380859375,-0.0048828125,-0.00396728515625,0.034067992120981216,0.020043639466166496,0.017740478739142418,0.02575591951608658,0.02955932542681694,0.026970215141773224,0.034347839653491974,0.02735992521047592,0.01642761193215847,0.01229095458984375,0.030382690951228142
-0.003662109375,0.0006103515625,-0.01373291015625,-0.01007080078125,-0.00457763671875,-0.0091552734375,-0.00091552734375,-0.0006103515625,0.01312255859375,-0.00335693359375,-0.0128173828125,-0.01068115234375,-0.0006103515625,-0.003662109375,-0.013427734375,-0.0042724609375,-0.0079345703125,-0.00885009765625,-0.0030517578125,-0.00823974609375,-0.0042724609375,0.0,-0.00732421875,-0.0018310546875,0.001220703125,-0.00030517578125,-0.00335693359375,-0.0018310546875,-0.00030517578125,-0.00457763671875,-0.0018310546875,-0.001220703125,-0.00732421875,-0.00335693359375,-0.00335693359375,-0.0067138671875,0.0006103515625,-0.0042724609375,-0.00823974609375,-0.0030517578125,0.029490357264876366,0.056969910860061646,0.03589843586087227,0.02209381014108658,0.03764648362994194,0.030174560844898224,0.025497741997241974,0.007523498497903347,0.02588806115090847,0.03029632568359375,0.03343444690108299
-0.003662109375,-0.00091552734375,-0.0018310546875,-0.00732421875,-0.0030517578125,-0.00244140625,-0.00213623046875,-0.00091552734375,-0.00457763671875,-0.00396728515625,-0.01190185546875,-0.00396728515625,-0.0042724609375,-0.0042724609375,-0.00152587890625,-0.00244140625,-0.0030517578125,0.00244140625,-0.0006103515625,-0.0030517578125,-0.01708984375,-0.00701904296875,-0.009765625,-0.01312255859375,-0.0079345703125,-0.0030517578125,0.0054931640625,-0.006103515625,-0.00244140625,-0.006103515625,-0.00213623046875,-0.0079345703125,-0.00396728515625,-0.00396728515625,0.0006103515625,0.0006103515625,-0.0042724609375,-0.00762939453125,-0.00396728515625,0.00518798828125,0.035441283136606216,0.031945496797561646,0.03971313312649727,0.02773956209421158,0.03520507737994194,0.031242676079273224,0.042129822075366974,0.03285308927297592,0.02329406701028347,0.03624725341796875,0.019243774935603142
-0.00152587890625,-0.001220703125,0.00152587890625,-0.0091552734375,-0.006103515625,0.0067138671875,-0.00213623046875,-0.001220703125,-0.01922607421875,-0.00732421875,-0.01190185546875,-0.00244140625,-0.00762939453125,-0.0091552734375,-0.01312255859375,-0.0042724609375,-0.006103515625,0.0018310546875,0.00335693359375,-0.00091552734375,-0.010986328125,-0.0030517578125,-0.0018310546875,0.00152587890625,-0.00030517578125,-0.00701904296875,0.001220703125,-0.0079345703125,-0.00640869140625,-0.008544921875,0.00091552734375,0.001220703125,-0.0042724609375,0.00396728515625,-0.0018310546875,-0.001220703125,0.0006103515625,-0.00518798828125,-0.001220703125,0.00030517578125,0.032999876886606216,0.029961852356791496,0.031015625223517418,0.01858428865671158,0.02879638597369194,0.032921142876148224,0.040298767387866974,0.02949615567922592,0.02832946740090847,0.08507537841796875,0.03694396838545799
-0.0048828125,-0.00244140625,0.0,-0.00457763671875,-0.003662109375,-0.00091552734375,-0.00457763671875,-0.00152587890625,-0.02166748046875,-0.0323486328125,-0.023193359375,-0.01129150390625,-0.013427734375,-0.0201416015625,-0.02288818359375,-0.00152587890625,0.0054931640625,-0.0042724609375,-0.0018310546875,0.0006103515625,-0.00274658203125,0.00152587890625,-0.00518798828125,0.001220703125,-0.00457763671875,-0.006103515625,-0.00030517578125,-0.00274658203125,0.0018310546875,-0.00457763671875,-0.00579833984375,-0.0048828125,-0.006103515625,-0.00732421875,-0.00335693359375,0.0006103515625,-0.0018310546875,-0.0018310546875,0.00701904296875,0.00457763671875,0.027354126796126366,0.006768493447452784,0.03696655109524727,0.02163604646921158,0.02543945237994194,0.025291748344898224,0.032211609184741974,0.02980133146047592,0.03534851223230362,0.09880828857421875,0.013903197832405567
-0.006103515625,-0.015869140625,-0.00091552734375,-0.00762939453125,0.00213623046875,-0.003662109375,-0.003662109375,0.00640869140625,-0.02349853515625,-0.02197265625,-0.02197265625,-0.01556396484375,-0.02227783203125,-0.0274658203125,-0.0250244140625,-0.01678466796875,-0.008544921875,-0.00762939453125,-0.008544921875,-0.0042724609375,-0.009765625,-0.0079345703125,-0.01129150390625,-0.00579833984375,-0.0042724609375,-0.00396728515625,0.00091552734375,-0.00091552734375,-0.0030517578125,-0.001220703125,-0.0048828125,0.0006103515625,-0.00274658203125,-0.00091552734375,-0.0030517578125,-0.0067138671875,-0.003662109375,-0.00335693359375,-0.0103759765625,-0.001220703125,0.036661986261606216,0.023553160950541496,0.03345702961087227,-0.010712585411965847,0.02284545823931694,0.018577881157398224,0.041366882622241974,0.03132721036672592,0.02375183068215847,0.12383270263671875,0.016802368685603142
-0.00274658203125,-0.00335693359375,-0.00213623046875,-0.00946044921875,-0.00457763671875,-0.00152587890625,0.0006103515625,-0.00030517578125,-0.0054931640625,-0.0018310546875,-0.01190185546875,-0.00579833984375,-0.00274658203125,-0.0048828125,-0.00091552734375,-0.0030517578125,-0.00579833984375,-0.0042724609375,-0.0067138671875,0.00030517578125,-0.00640869140625,-0.0048828125,-0.0091552734375,-0.00701904296875,-0.001220703125,-0.00579833984375,0.00152587890625,0.00091552734375,0.001220703125,0.0,-0.018310546875,0.0006103515625,-0.00640869140625,-0.028076171875,-0.00579833984375,-0.00579833984375,0.01068115234375,-0.0079345703125,-0.00152587890625,-0.0006103515625,0.022776490077376366,0.038964539766311646,0.023233642801642418,0.02865508943796158,0.01933593675494194,0.027275390923023224,0.029617615044116974,0.004776916466653347,0.03443298488855362,0.09682464599609375,0.017260132357478142
-0.00244140625,0.00579833984375,-0.00335693359375,-0.01007080078125,-0.00518798828125,-0.00579833984375,-0.00091552734375,0.0,-0.008544921875,-0.00335693359375,-0.01251220703125,-0.00762939453125,-0.003662109375,-0.00244140625,-0.0140380859375,0.0,-0.0213623046875,-0.009765625,-0.00518798828125,-0.00213623046875,-0.0054931640625,-0.003662109375,-0.00823974609375,-0.0006103515625,0.00091552734375,-0.00335693359375,0.0054931640625,-0.00030517578125,0.0006103515625,-0.008544921875,-0.0079345703125,0.00152587890625,-0.00213623046875,-0.00396728515625,-0.00640869140625,-0.006103515625,-0.00701904296875,-0.00823974609375,-0.006103515625,-0.0042724609375,0.026743775233626366,0.045068055391311646,0.028269043192267418,0.04757598787546158,0.03245849534869194,0.016289062798023224,0.016189880669116974,0.01713653653860092,0.02543029747903347,0.05623626708984375,0.03145080432295799
0.00213623046875,-0.001220703125,0.00091552734375,-0.01007080078125,-0.0048828125,0.00030517578125,0.0018310546875,-0.00213623046875,-0.00213623046875,-0.0018310546875,-0.0103759765625,-0.00213623046875,-0.003662109375,-0.00091552734375,-0.00213623046875,-0.00274658203125,-0.0048828125,0.00091552734375,-0.00579833984375,-0.00030517578125,0.00213623046875,-0.00152587890625,-0.00213623046875,0.00823974609375,-0.00091552734375,-0.00579833984375,-0.01007080078125,-0.00701904296875,-0.00518798828125,-0.001220703125,-0.00213623046875,-0.00732421875,-0.00396728515625,-0.00518798828125,-0.0042724609375,-0.001220703125,-0.00335693359375,0.003662109375,-0.00396728515625,-0.0048828125,0.014536743052303791,0.040948182344436646,0.03696655109524727,0.06558135896921158,0.03428955003619194,0.023918457329273224,0.027786560356616974,0.02369781583547592,0.02619323693215847,0.00634002685546875,0.022295532748103142
-0.00732421875,-0.001220703125,-0.00213623046875,-0.01312255859375,-0.003662109375,-0.0018310546875,-0.0042724609375,-0.0042724609375,-0.00335693359375,0.00152587890625,-0.01068115234375,-0.00335693359375,0.00244140625,-0.0030517578125,-0.001220703125,0.0006103515625,-0.00396728515625,-0.0054931640625,-0.00885009765625,-0.00091552734375,-0.0067138671875,-0.00762939453125,0.00244140625,-0.00274658203125,-0.00091552734375,-0.00091552734375,-0.0042724609375,0.00091552734375,-0.00213623046875,-0.00091552734375,-0.0054931640625,-0.0030517578125,-0.00152587890625,-0.00579833984375,-0.00030517578125,-0.00213623046875,-0.006103515625,-0.00030517578125,-0.00030517578125,-0.00244140625,0.038035277277231216,0.040795594453811646,0.05008910968899727,0.04467681795358658,0.02894897386431694,0.025291748344898224,0.021377868950366974,0.02476593106985092,0.03931579738855362,0.00954437255859375,0.022448120638728142
-0.00396728515625,-0.00244140625,-0.0018310546875,-0.0067138671875,-0.00396728515625,-0.00091552734375,-0.00091552734375,-0.00274658203125,-0.00152587890625,-0.0006103515625,-0.01129150390625,-0.0042724609375,-0.00518798828125,-0.0042724609375,-0.001220703125,-0.001220703125,0.0,-0.00152587890625,-0.0042724609375,-0.0018310546875,-0.0079345703125,-0.00396728515625,-0.0018310546875,-0.00579833984375,-0.0006103515625,-0.0042724609375,0.00030517578125,0.00152587890625,-0.006103515625,-0.0030517578125,-0.0054931640625,-0.006103515625,-0.006103515625,-0.0048828125,0.00030517578125,-0.0054931640625,-0.0030517578125,0.006103515625,0.00244140625,-0.0006103515625,0.058939818292856216,0.034692078828811646,0.03238891437649727,0.03216461092233658,0.03337402269244194,0.015068359673023224,0.017715759575366974,0.03575225919485092,0.04633484035730362,-0.02478790283203125,0.027330933138728142
-0.001220703125,-0.0115966796875,-0.0030517578125,-0.0128173828125,0.003662109375,-0.00152587890625,0.0,-0.00244140625,-0.00213623046875,-0.0042724609375,-0.010986328125,-0.00457763671875,-0.0030517578125,-0.0048828125,-0.00457763671875,-0.00213623046875,-0.00335693359375,-0.0018310546875,-0.00732421875,0.00274658203125,-0.00457763671875,-0.0006103515625,0.00732421875,-0.01007080078125,-0.0042724609375,0.0067138671875,-0.0018310546875,-0.00396728515625,-0.008544921875,-0.00396728515625,-0.001220703125,-0.0030517578125,-0.003662109375,-0.0067138671875,-0.0006103515625,-0.008544921875,-0.0030517578125,-0.00457763671875,-0.01983642578125,0.0030517578125,0.036051634699106216,-0.021918030455708504,0.029489746317267418,0.02712921053171158,0.02299804612994194,0.026665039360523224,0.022903747856616974,0.01957794278860092,0.02344665490090847,-0.02692413330078125,0.016344605013728142
-0.0079345703125,-0.00213623046875,-0.00091552734375,0.003662109375,-0.0048828125,-0.0030517578125,-0.0067138671875,-0.00091552734375,-0.0030517578125,-0.00091552734375,-0.0146484375,-0.00518798828125,-0.0006103515625,-0.003662109375,-0.0030517578125,-0.003662109375,-0.00640869140625,-0.00823974609375,-0.0103759765625,0.0,0.02105712890625,-0.00091552734375,-0.0006103515625,-0.008544921875,-0.00335693359375,-0.00701904296875,-0.0042724609375,-0.00335693359375,-0.00457763671875,-0.00518798828125,-0.00732421875,-0.0079345703125,-0.00457763671875,0.00152587890625,-0.00274658203125,0.00274658203125,-0.01983642578125,-0.001220703125,-0.0079345703125,-0.006103515625,0.036204222589731216,0.007226257119327784,0.03345702961087227,-0.01818939298391342,0.014300537295639515,0.023765869438648224,0.058304138481616974,0.03361602872610092,0.02924499474465847,0.00984954833984375,0.022905884310603142
-0.003662109375,-0.0091552734375,0.0,-0.01129150390625,0.0103759765625,-0.00335693359375,-0.00457763671875,0.0079345703125,-0.01007080078125,-0.009765625,-0.01251220703125,-0.00244140625,-0.0091552734375,-0.00640869140625,-0.01434326171875,-0.008544921875,-0.0091552734375,-0.00152587890625,-0.0054931640625,-0.0054931640625,-0.00030517578125,-0.00823974609375,-0.01220703125,-0.00244140625,-0.0030517578125,-0.00701904296875,-0.00396728515625,-0.0103759765625,-0.00732421875,-0.006103515625,-0.006103515625,-0.003662109375,-0.00274658203125,-0.0042724609375,-0.0048828125,-0.00213623046875,-0.0042724609375,-0.0067138671875,-0.00091552734375,0.00091552734375,0.07007873803377151,0.034692078828811646,0.030252685770392418,0.010191955603659153,0.02833862230181694,0.012016601860523224,0.040298767387866974,0.02507110685110092,0.03275451809167862,0.03151702880859375,0.023211060091853142
-0.00457763671875,-0.00579833984375,-0.00213623046875,-0.01068115234375,-0.008544921875,-0.0067138671875,-0.00152587890625,0.001220703125,-0.02288818359375,-0.02227783203125,-0.029296875,-0.0128173828125,-0.0201416015625,-0.0262451171875,-0.0250244140625,-0.0152587890625,0.00732421875,0.00030517578125,-0.0030517578125,-0.00732421875,-0.003662109375,-0.009765625,-0.0054931640625,-0.00701904296875,-0.00640869140625,-0.00396728515625,-0.00335693359375,-0.00457763671875,-0.0006103515625,-0.0042724609375,0.00091552734375,-0.00518798828125,-0.00335693359375,-0.0030517578125,-0.00640869140625,-0.00579833984375,-0.01251220703125,-0.008544921875,-0.00579833984375,-0.01220703125,0.07953918725252151,0.030877379700541496,0.03315185382962227,0.03308013826608658,0.03383178636431694,0.024071045219898224,0.015121765434741974,0.02842804044485092,0.02054748497903347,0.02251434326171875,0.024584351107478142
-0.0030517578125,0.01220703125,-0.00091552734375,-0.01190185546875,-0.01617431640625,-0.003662109375,0.00091552734375,-0.0030517578125,-0.025634765625,-0.02227783203125,-0.0274658203125,-0.0115966796875,-0.020751953125,-0.023193359375,-0.02685546875,-0.0164794921875,-0.0042724609375,0.00030517578125,-0.008544921875,0.0006103515625,-0.00274658203125,-0.00152587890625,-0.00213623046875,-0.0079345703125,-0.00396728515625,-0.00091552734375,-0.00335693359375,-0.001220703125,-0.0128173828125,-0.00946044921875,-0.00396728515625,-0.00518798828125,-0.0006103515625,-0.0079345703125,-0.003662109375,-0.00274658203125,0.00091552734375,-0.0030517578125,0.00274658203125,-0.0048828125,0.045054320245981216,-0.004828186240047216,0.03147338703274727,0.02773956209421158,0.06358642876148224,0.042229004204273224,0.029922790825366974,0.02232452481985092,0.03351745754480362,-0.00479888916015625,0.027330933138728142
-0.00244140625,-0.00518798828125,-0.00274658203125,0.00274658203125,-0.00518798828125,-0.001220703125,0.0054931640625,-0.0018310546875,-0.00244140625,-0.00335693359375,-0.01068115234375,-0.0030517578125,-0.003662109375,-0.001220703125,-0.00030517578125,-0.00274658203125,-0.0091552734375,-0.01373291015625,-0.00579833984375,-0.0042724609375,-0.0042724609375,-0.0079345703125,-0.006103515625,-0.00518798828125,-0.00213623046875,-0.0006103515625,-0.0048828125,-0.001220703125,-0.00457763671875,-0.00518798828125,0.0079345703125,0.00152587890625,-0.00213623046875,-0.01251220703125,-0.00640869140625,-0.00518798828125,0.00457763671875,-0.00579833984375,-0.0048828125,-0.00762939453125,0.037119749933481216,0.028283385559916496,0.023691406473517418,0.009123840369284153,0.02528686448931694,0.026207275688648224,0.036789245903491974,0.02659698575735092,0.02237853966653347,-0.00693511962890625,0.029314575716853142
-0.00274658203125,-0.0018310546875,0.00457763671875,-0.00946044921875,-0.00457763671875,0.00335693359375,-0.0018310546875,-0.00213623046875,-0.00885009765625,-0.00396728515625,-0.013427734375,-0.00457763671875,-0.00030517578125,-0.00274658203125,-0.0018310546875,-0.0048828125,-0.00579833984375,-0.0067138671875,-0.00579833984375,-0.00732421875,-0.0042724609375,-0.0054931640625,-0.008544921875,-0.0030517578125,0.0,-0.0054931640625,-0.00152587890625,-0.00152587890625,-0.006103515625,-0.00762939453125,-0.0006103515625,0.0006103515625,-0.001220703125,0.00579833984375,0.001220703125,0.001220703125,0.00640869140625,-0.0006103515625,0.00274658203125,0.00732421875,-0.005757446400821209,0.031945496797561646,0.04017089679837227,0.03872589021921158,0.02879638597369194,0.035057373344898224,0.027633972465991974,0.02461334317922592,0.04114685207605362,0.00298309326171875,0.021227417513728142
-0.00640869140625,-0.0018310546875,-0.0177001953125,-0.0103759765625,-0.00579833984375,-0.013427734375,-0.00152587890625,-0.0042724609375,-0.0177001953125,-0.00274658203125,-0.0140380859375,-0.00640869140625,-0.00244140625,-0.0048828125,0.013427734375,-0.00457763671875,-0.00701904296875,-0.00335693359375,-0.0030517578125,-0.00732421875,-0.00335693359375,-0.0067138671875,-0.00518798828125,-0.00244140625,-0.0048828125,0.00213623046875,-0.00335693359375,-0.00335693359375,0.003662109375,-0.003662109375,-0.00579833984375,0.00152587890625,-0.00640869140625,-0.0067138671875,-0.00640869140625,-0.00579833984375,-0.0079345703125,-0.01068115234375,-0.00946044921875,0.0054931640625,0.0008038330124691129,0.052850037813186646,0.03483032062649727,0.03918365389108658,0.02391357347369194,0.013695068657398224,0.027786560356616974,0.01683136075735092,0.03092346154153347,0.03258514404296875,0.03267150744795799
-0.00579833984375,-0.009765625,-0.00335693359375,-0.008544921875,-0.0030517578125,-0.00274658203125,-0.00213623046875,-0.003662109375,-0.0042724609375,-0.00091552734375,-0.01190185546875,-0.0067138671875,-0.0042724609375,-0.00457763671875,0.00335693359375,-0.00244140625,-0.00762939453125,0.0,-0.00396728515625,-0.00457763671875,-0.0048828125,-0.00579833984375,-0.00030517578125,0.00152587890625,-0.00152587890625,-0.0042724609375,-0.00823974609375,-0.00335693359375,0.00274658203125,-0.0054931640625,-0.0067138671875,-0.01007080078125,-0.008544921875,-0.0067138671875,-0.00091552734375,-0.003662109375,-0.00885009765625,-0.008544921875,-0.001220703125,0.00213623046875,0.027964478358626366,-0.0023867797572165728,0.020487060770392418,0.03552154451608658,0.06114501878619194,0.024986572563648224,0.028091736137866974,0.02491851896047592,0.03138122707605362,0.03075408935546875,0.030230103060603142
-0.00244140625,-0.00335693359375,-0.0030517578125,-0.01220703125,-0.0054931640625,-0.00152587890625,-0.00823974609375,-0.00274658203125,-0.0048828125,-0.00274658203125,-0.01190185546875,-0.00213623046875,-0.0128173828125,-0.00396728515625,-0.0006103515625,-0.00152587890625,-0.00579833984375,-0.010986328125,-0.00640869140625,-0.0042724609375,-0.00335693359375,-0.00579833984375,-0.0115966796875,-0.0079345703125,-0.006103515625,-0.0006103515625,-0.001220703125,-0.0091552734375,-0.00518798828125,-0.00762939453125,0.0018310546875,0.00152587890625,-0.00152587890625,-0.02410888671875,-0.00640869140625,-0.00457763671875,0.00732421875,-0.006103515625,-0.00213623046875,-0.00579833984375,0.042307738214731216,0.046746522188186646,0.025675049051642418,0.03704742342233658,0.02757568284869194,0.017357178032398224,0.007339782547205687,0.012406310997903347,0.03244934231042862,0.07012176513671875,0.03358703479170799
-0.006103515625,-0.00335693359375,-0.00335693359375,0.001220703125,-0.006103515625,-0.00213623046875,-0.0128173828125,-0.00030517578125,-0.00244140625,-0.0091552734375,-0.0152587890625,-0.003662109375,-0.0048828125,-0.00335693359375,-0.00335693359375,-0.00213623046875,0.00335693359375,-0.0006103515625,-0.0067138671875,-0.01800537109375,-0.0018310546875,-0.00152587890625,0.0048828125,-0.0042724609375,-0.003662109375,-0.00701904296875,-0.00457763671875,-0.0048828125,-0.009765625,-0.008544921875,-0.00732421875,0.010986328125,-0.0067138671875,-0.00244140625,-0.010986328125,-0.0042724609375,0.0006103515625,0.0164794921875,-0.0006103515625,0.00152587890625,0.019266968593001366,0.046288758516311646,0.03147338703274727,0.02484039217233658,0.02589721605181694,0.022697754204273224,0.022751159965991974,0.03712555021047592,0.04114685207605362,0.05867767333984375,0.04762512072920799
-0.00335693359375,-0.01068115234375,-0.001220703125,-0.00885009765625,-0.0128173828125,-0.00457763671875,-0.0018310546875,-0.0079345703125,-0.00274658203125,-0.00091552734375,-0.01495361328125,-0.0042724609375,-0.00152587890625,-0.0048828125,-0.00274658203125,-0.0018310546875,0.00274658203125,-0.003662109375,-0.00213623046875,0.00030517578125,-0.0054931640625,-0.0006103515625,-0.0030517578125,-0.0067138671875,-0.0006103515625,0.00396728515625,0.0006103515625,-0.0018310546875,-0.0030517578125,-0.00152587890625,-0.00518798828125,0.0067138671875,0.00335693359375,-0.003662109375,-0.00213623046875,-0.001220703125,-0.003662109375,-0.01800537109375,-0.00457763671875,-0.001220703125,0.018809204921126366,0.047356873750686646,0.03849243000149727,0.013243713416159153,0.02788085862994194,0.026970215141773224,0.029770202934741974,0.03453155606985092,0.03428039699792862,0.01763153076171875,0.013140258379280567
-0.00213623046875,-0.00213623046875,-0.001220703125,-0.00946044921875,-0.00396728515625,-0.0006103515625,0.0018310546875,-0.0018310546875,-0.00396728515625,-0.0103759765625,-0.01129150390625,-0.0128173828125,-0.01007080078125,-0.0103759765625,-0.0262451171875,-0.0067138671875,-0.00091552734375,-0.0018310546875,-0.00396728515625,-0.003662109375,-0.00457763671875,-0.00244140625,-0.00518798828125,-0.00152587890625,-0.00579833984375,0.00091552734375,-0.006103515625,-0.0018310546875,0.0067138671875,-0.00213623046875,-0.00579833984375,-0.01220703125,-0.0079345703125,-0.001220703125,0.01007080078125,0.0006103515625,0.0,-0.0067138671875,-0.00091552734375,0.00213623046875,0.032236937433481216,0.056206971406936646,0.04703735187649727,0.03521636873483658,0.02452392503619194,0.025902099907398224,0.032821960747241974,0.03132721036672592,0.03107604943215847,0.02877044677734375,0.03724914416670799
-0.0042724609375,-0.003662109375,-0.01190185546875,-0.00885009765625,-0.003662109375,-0.00152587890625,-0.00030517578125,-0.0018310546875,-0.020751953125,-0.01953125,-0.02197265625,-0.0115966796875,-0.01953125,-0.02105712890625,-0.02410888671875,-0.02349853515625,-0.0030517578125,0.0006103515625,-0.00274658203125,-0.00091552734375,-0.00335693359375,-0.00579833984375,-0.00762939453125,-0.003662109375,-0.00091552734375,-0.00396728515625,-0.00457763671875,-0.00640869140625,0.00091552734375,0.00030517578125,-0.0067138671875,-0.0048828125,-0.0030517578125,0.001220703125,0.00213623046875,-0.008544921875,0.0042724609375,-0.0067138671875,-0.0006103515625,-0.0006103515625,0.025217896327376366,0.039574891328811646,0.05405639484524727,0.03643707185983658,0.01918334886431694,0.026359863579273224,0.030838318169116974,0.02522369474172592,0.01947936974465847,0.04189300537109375,0.0006280517554841936
-0.00396728515625,0.00457763671875,-0.00213623046875,-0.01129150390625,0.00762939453125,-0.00030517578125,-0.0006103515625,0.01007080078125,-0.0238037109375,-0.02349853515625,-0.01708984375,-0.01495361328125,-0.0213623046875,-0.01190185546875,-0.02593994140625,-0.01708984375,-0.00335693359375,-0.0152587890625,-0.00518798828125,-0.00396728515625,-0.003662109375,-0.006103515625,-0.00396728515625,-0.01068115234375,-0.00396728515625,-0.003662109375,-0.00518798828125,-0.0042724609375,-0.00457763671875,-0.003662109375,-0.0042724609375,-0.0115966796875,-0.0042724609375,-0.00396728515625,-0.00518798828125,-0.00579833984375,-0.0030517578125,-0.00396728515625,-0.0042724609375,-0.001220703125,0.023692017421126366,0.039574891328811646,0.027353515848517418,0.02636627107858658,0.03612060472369194,0.027427978813648224,0.032516784965991974,0.03086944669485092,0.02832946740090847,0.04372406005859375,0.025499878451228142
-0.0030517578125,-0.00244140625,-0.0006103515625,-0.00396728515625,-0.00579833984375,-0.00213623046875,-0.0048828125,-0.00213623046875,-0.0042724609375,-0.0079345703125,-0.01068115234375,-0.0054931640625,0.0,-0.0030517578125,-0.00244140625,-0.00152587890625,-0.001220703125,-0.001220703125,-0.00091552734375,-0.00640869140625,-0.0048828125,-0.00091552734375,-0.00274658203125,-0.00091552734375,-0.0006103515625,-0.00396728515625,0.0006103515625,-0.0018310546875,-0.0048828125,-0.0006103515625,-0.00579833984375,-0.0067138671875,-0.00152587890625,-0.0030517578125,-0.00396728515625,-0.0018310546875,-0.0030517578125,-0.00274658203125,-0.00335693359375,0.001220703125,0.035899046808481216,0.038659363985061646,0.015756836161017418,0.02331451326608658,0.02971191331744194,0.023002929985523224,0.029770202934741974,0.03239532560110092,0.03809509426355362,0.03395843505859375,0.030077515169978142
