time,RGLTMED,RRF,RADDLONG,RST,RTA,RGM,LGLTMED,LRF,LADDLONG,LST,LTA,LGM
0.0,0.011922947272683993,0.06045431966555585,0.004773944907594233,0.01443320156548699,0.005731563305423614,0.09116163074035895,0.011388989594080105,0.016289757624548082,0.003969485104354261,0.11803320979769481,0.05002827130052427,0.01589645622450382
0.001,0.0128040167014753,0.06443683730838173,0.006495707938713551,0.012530061645082587,0.008150378858921867,0.09557383996616543,0.011865594428485936,0.017332183339182124,0.005746921894821373,0.11197204217535864,0.035347333234574375,0.01706114322747774
0.002,0.01369319828616866,0.06842077832786615,0.008216531700675385,0.010633586079684789,0.010557133168037885,0.09999886151029294,0.012344174975289335,0.018372275937608224,0.0075237561454448675,0.10592072392437166,0.020674580230224088,0.018211046975061457
0.003,0.014589954545535942,0.07240340119938307,0.009935380841802753,0.008745097228118366,0.012950368978825358,0.10443404406020673,0.012824355533700952,0.019409277973073652,0.009298928392906733,0.09988108378587748,0.006019470164367421,0.01934511052448731
0.004,0.015493736842650126,0.07638194967405437,0.011651220700085346,0.006865917795580067,0.015328648559664973,0.10887672696577765,0.013305755436926286,0.020442434694055545,0.011071379444329028,0.09385486764757478,0.008608556947423969,0.02046229331935149
0.005,0.01640398608815165,0.08035365651108331,0.013363018698818105,0.004997369325307612,0.017690555991116953,0.11332424445677458,0.013787989602697287,0.02147099530454538,0.012840051773273579,0.08784373513597851,0.023200093088580127,0.021561573281974007
0.006,0.01732013345793484,0.08431574726315064,0.015069745741929156,0.00314077070000898,0.020034699421620405,0.11777392988913342,0.014270669094469703,0.02249421421727605,0.0146038909123006,0.08184925640804035,0.03774577619361739,0.022641948897963195
0.007,0.01824160112285156,0.08826544410781695,0.016770377606068487,0.0012974366562504658,0.022359713283373443,0.12222312000827462,0.01475340169160278,0.02351135229580529,0.01636184683898236,0.07587290915135463,0.052236303865608756,0.023702441287172502
0.008,0.019167802988079557,0.09219996971806942,0.018463896326754364,0.0005313236852349559,0.02466426046288992,0.12666915921788527,0.0152357924669017,0.024521678081228473,0.01811287535251499,0.06991607580142291,0.06666244681506822,0.02474209625545799
0.009,0.02009814544006866,0.09611655116516878,0.020149291575885242,0.002344208270682912,0.026947034421063217,0.13110940384248784,0.015717444370078316,0.025524468999461005,0.019855939438241415,0.06398004098393148,0.08101506198038204,0.02575998632199248
0.01,0.021032028099062756,0.10001242384700935,0.021825562028115957,0.0041399235435072,0.029206761257580805,0.13554122637215604,0.016197958815773475,0.026519012544919122,0.02159001061735586,0.058065989189253514,0.09528510529337934,0.026755212717266913
0.011,0.021968844575524796,0.10388483543504407,0.023491716713690044,0.005917185851454695,0.03144220171464211,0.13996201967747676,0.01667693627498319,0.027504607436510176,0.023314070279222488,0.05217500268582421,0.10946364405650533,0.027726907347546546
0.012,0.022907983228895756,0.10773104983266894,0.02514677635526678,0.007674722828832175,0.03365215311508363,0.1443692011827016,0.01715397686884794,0.02848056474199209,0.025027110993668913,0.04630805967836831,0.12354186890136498,0.028674234722027625
0.013,0.02384882792751384,0.11154835113764348,0.026789774686449,0.009411274752238965,0.03583545123006559,0.14876021698472014,0.017628680963804017,0.029446208966915872,0.026728137800793233,0.0404660327163488,0.13751110530209434,0.029596393839423453
0.014,0.024790758808655822,0.11533404760099299,0.02841975974957151,0.011125595868530779,0.03799097207160737,0.15313254590529318,0.01810064976719426,0.030400879104680745,0.028416169475863156,0.03464968735733896,0.15136282462139652,0.030492620030947538
0.015,0.025733153037930574,0.11908547557448307,0.030035795170456098,0.012816455694071142,0.04011763360542862,0.15748370346383642,0.018569485922483135,0.03134392964456635,0.030090239767034392,0.02885968108930857,0.1650886546720396,0.03136218675686626
0.016,0.02667538556733168,0.12280000343862937,0.031636961407698415,0.014482640284638117,0.042214397379619524,0.16181124575819733,0.019034794103170802,0.03227473153494333,0.03174939860376676,0.023096562514683627,0.17868038978194037,0.03220440735388875
0.017,0.027616829891391685,0.12647503550305114,0.03322235697430939,0.016122953475484498,0.044280270064897355,0.16611277324129514,0.019496181604644138,0.03319267309923556,0.03339271327385122,0.01736077079773055,0.19213000035616926,0.03301863673071506
0.018,0.028556858800829844,0.13010801587076795,0.03479109962952878,0.017736218091296625,0.0463143049022833,0.17038593438219782,0.019953258932992924,0.034097160902685233,0.03501926956714132,0.011652635375314923,0.20542964193385568,0.03380427300912192
0.019,0.029494845133133177,0.13369643225807595,0.03634232753885121,0.019321277125945557,0.04831560305419295,0.17462842920102628,0.02040564039002919,0.03498762056822392,0.03662817288407472,0.00597237592955087,0.21857166374150233,0.03456075910803714
0.02,0.03043016251942831,0.137237819761427,0.03787520040040362,0.020876994892020016,0.05028331485507731,0.17883801266809607,0.020852944653636095,0.03586349754032679,0.038218549307211164,0.0003201026198319733,0.23154861674690327,0.03528758426802193
0.021,0.031362186126964314,0.14072976456292655,0.0393889005359667,0.022402258140295093,0.052216640958165174,0.1830124979586557,0.02129479535267914,0.036724257795992095,0.0397895466341673,0.005304183429108631,0.24435326121984968,0.035984285513766104
0.022,0.03229029339649239,0.1441699075658786,0.04088263394492252,0.023895977149412852,0.054114833375176495,0.18714975955561006,0.021730821635852975,0.037569388502431925,0.041340335370410895,0.010900589386879565,0.25697857380718536,0.03665044905223045
0.023,0.033213864773798916,0.14755594795202268,0.04235563131951134,0.0253570867860616,0.05597719640653479,0.19124773619385896,0.022160658733744315,0.03839839862124309,0.04287010968058438,0.01646932972897523,0.26941775413073465,0.037285711604381266
0.024,0.03413228443461119,0.1508856466520349,0.04380714901979654,0.02678454753619277,0.05780308746023337,0.195304433641012,0.022583948513641,0.03921081945916975,0.04437808829706982,0.022010725004541768,0.28166423091690496,0.03788976166867159
0.025,0.03504494100210601,0.15415682972129888,0.04523647000689335,0.028177346507896796,0.059591917757987736,0.19931792731030362,0.02300034002653225,0.04000620516579225,0.045863515384606014,0.027525200365005918,0.2937116676667333,0.03846234071473193
0.026,0.0359512282561023,0.15736739161318497,0.04664290473296632,0.029534498406599063,0.061343152927596435,0.20328636470230166,0.023409490045877994,0.04078413317884322,0.04732566135977582,0.033013283858392195,0.3055539678748557,0.03900324430590831
0.027,0.036850545833101385,0.1605152983426085,0.04802579198662847,0.030855046483375094,0.06305631348066848,0.20720796767254387,0.023811063597661296,0.04154420461814119,0.048763823664238364,0.038475604494500756,0.3171852798055601,0.03951232314944754
0.028,0.03774229991621392,0.1635985905328729,0.04938449969227345,0.03213806345706484,0.06473097517495548,0.21108103452257337,0.024204734481325714,0.042286044629272955,0.050177327490545556,0.043912890086309476,0.32860000083403546,0.03998948407324115
0.029,0.03862590391408379,0.16661538633914932,0.05071842566189393,0.033382652410931954,0.06636676926094846,0.21490394191231385,0.024590185781143466,0.0430093026783787,0.051565526459613605,0.049325964873345854,0.3397927813606622,0.040434690928166664
0.03,0.039500779127991346,0.1695638842419628,0.05202699829800276,0.03458794766448425,0.06796338261280586,0.21867514659204923,0.02496711036761354,0.043713652799367425,0.052927803249085005,0.054715746933034826,0.3507585283062062,0.04084796541508125
0.031,0.04036635540642166,0.1724423657042147,0.05330967724637712,0.03575311562118271,0.06952055774431098,0.22239318695312538,0.025335211388523318,0.04439879379506574,0.0542635701722251,0.060083245386437154,0.3614924081956188,0.04122938783577444
0.032,0.041222071786476515,0.17524919768512429,0.05456595399759556,0.03687735559260198,0.07103809271094479,0.22605668439740356,0.025694202749307248,0.04506444939370156,0.055572269707416945,0.0654295574051279,0.37198984983799727,0.04157909776716858
0.033,0.0420673771215222,0.17798283500444673,0.055795352436635026,0.03795990059980445,0.0725158408996301,0.2296643445264324,0.02604380958240533,0.04571036836238251,0.056853374978557164,0.07075586502641845,0.38224654661008056,0.04189729465831021
0.034,0.04290173069453649,0.18064182255014072,0.05699742934010291,0.03900001815252786,0.07395371070782782,0.23321495815181892,0.026383768705286678,0.04633632457913008,0.058106390186968906,0.07606343178455278,0.3922584583503017,0.04218423834962403
0.035,0.04372460281649146,0.1832247973226359,0.05817177482094526,0.03999701100693261,0.07535166511372415,0.23670740212847238,0.02671382906694716,0.04694211706525914,0.05933085099556713,0.08135359916577191,0.4020218128700503,0.04244024951416396
0.036,0.0445354754092061,0.18573049030886524,0.05931801272075266,0.0409502179025991,0.076709721139328,0.2401406400124093,0.027033752182549123,0.04752756997985524,0.06052632486603852,0.08662778289535263,0.41153310708856994,0.04266571002044439
0.037,0.045333842572029256,0.18815772817933726,0.06043580094999633,0.041859014279483964,0.07802794920844021,0.24351372254460354,0.0273433125560306,0.04809253257823217,0.061692411349898786,0.09188746906471339,0.42078910779840584,0.042861063216639204
0.038,0.04611921113178974,0.19050543480173496,0.06152483177657885,0.04272281297553894,0.07930647240172536,0.24682578796244317,0.027642298090368188,0.04863687913617527,0.06282874233422124,0.09713421010657142,0.42978685206978084,0.04302681413578754
0.039,0.046891101175599526,0.19277263256493168,0.0625848320633239,0.04354106490569057,0.08054546561121183,0.25007606213991695,0.027930510485246425,0.0491605088418265,0.06393498224286516,0.10236962062609525,0.4385236473047289,0.04316352962168764
0.04,0.047649046566278996,0.19495844350780867,0.06361556345495172,0.04431325972287369,0.08174515459685404,0.2532638585575687,0.028207765621732984,0.04966334565710162,0.06501082819389684,0.1075953730957897,0.4469970709545073,0.04327183837510701
0.041,0.04839259544041751,0.1970620902477868,0.06461682251519901,0.04503892646179333,0.08290581494780151,0.25638857810275584,0.028473893933617003,0.05014533815056991,0.06605601011388577,0.1128131934216885,0.4552049699161801,0.04335243091992933
0.042,0.049121310689268484,0.1990828967046595,0.06558844081459267,0.04571763416605728,0.08402777095132181,0.25944970870046424,0.028728740765004392,0.05060645930381687,0.06707029080955637,0.11802485638828382,0.4631454596254472,0.04340605948887153
0.043,0.04983477042273112,0.20102028861597857,0.06653028496939031,0.04634899249925835,0.08511139437242839,0.26244682477443554,0.02897216671371338,0.051046706293236245,0.0680534659972443,0.12323218098942232,0.47081692286280974,0.0434335378283942
0.044,0.05053256841659679,0.2028737938411292,0.06744225663194463,0.046932652340441715,0.08615710314741223,0.2653795865380967,0.02920404796014647,0.05146610024926387,0.0690053642903136,0.1284370256523368,0.4782180082895276,0.043435740922441415
0.045,0.051214314543288335,0.20464304245227968,0.06832429243275753,0.047468306364352945,0.08716535999454138,0.26824773911429856,0.02942427658122709,0.05186468599493056,0.06992584714473957,0.13364128336207287,0.4853476287287319,0.04341360463469406
0.046,0.05187963518619323,0.206327766611472,0.06917636387447336,0.04795568960668709,0.08813667094515866,0.2710511114828528,0.029632760849201998,0.05224253176564049,0.07081480876273212,0.13884687669378176,0.4922049592059264,0.04336812526905268
0.047,0.05252817363778969,0.20792780023429142,0.06999847717797317,0.048394580014569845,0.08907158379825035,0.27378961525480944,0.02982942551497208,0.052599728911940695,0.07167217595421407,0.14405575276083177,0.4987894347621066,0.043300359048097335
0.048,0.05315959048176229,0.20944307844185203,0.07079067308083052,0.048784798982411504,0.0899706865015017,0.276463243272891,0.03001421207574187,0.05293639158712167,0.0724979079558171,0.14926987808712325,0.505100748052216,0.043211421509261924
0.049,0.05377356395927691,0.21087363680400267,0.07155302658836746,0.04912621187322399,0.0908346054618317,0.2790720680378134,0.030187079026762074,0.05325265642126081,0.07329199620691207,0.1544912334127964,0.5111388467412136,0.04310248681849971
0.05,0.05436979031960099,0.21221961037784232,0.07228564667746745,0.04941872852537437,0.09166400378856944,0.28161623996094615,0.030348002096865064,0.05354868218339736,0.07405446408224624,0.1597218084430421,0.5169039307102707,0.04297478700115341
0.051,0.05494798415515398,0.2134812325465306,0.0729886759533816,0.04966230374465544,0.0924595794726892,0.28409598544459835,0.03049697446761017,0.05382464943329914,0.07478536658065374,0.1649635965503333,0.5223964490859333,0.04282961108991559
0.052,0.0555078787209587,0.21465883366422034,0.0736622902597565,0.04985693778141577,0.0932220635057126,0.28651160479232685,0.03063400697571478,0.05408076016422042,0.07548478996939062,0.17021858944090232,0.527617097105694,0.04266830418983703
0.053,0.05604922623844881,0.2157528395133235,0.07430669824211734,0.05000267679243859,0.09395221794223406,0.28886346995259443,0.030759128298662456,0.05431723743790933,0.0761528513836243,0.17548877179671377,0.5325668128339162,0.04249226646073596
0.054,0.05657179818336897,0.21676376958080532,0.07492214086514074,0.0500996132871314,0.09465083391036272,0.2911520221001879,0.03087238512328358,0.05453432501301734,0.07678969838077512,0.18077611590457063,0.5372467737422278,0.042302952017518214
0.055,0.05707538555750279,0.21769223516037753,0.07550889088406,0.05014788655764665,0.09531872957470906,0.2933777690610805,0.030973842297098753,0.05473228696791153,0.07739550844969886,0.18608257628406516,0.5416583931681711,0.042101867749162226
0.056,0.05755979914372889,0.21853893728770163,0.07606725227075233,0.05014768309246079,0.09595674805690779,0.2955412825879022,0.03106358296228697,0.054911407318917534,0.07797048847498952,0.1914100843262304,0.5458033166654097,0.04189057205730075
0.057,0.05802486974391691,0.2193046645158793,0.07659755959500959,0.050099236972867514,0.09656575531886757,0.29764319549522417,0.03114170867196511,0.05507198963484518,0.07851487415704457,0.19676054295468584,0.5496834182579978,0.041670673515344724
0.058,0.05847044839901528,0.21999029053875815,0.07710017736156406,0.05000283025175849,0.09714663801416436,0.2996841986660282,0.031208339488513415,0.055214356648681025,0.0790289293888806,0.20213582132093347,0.5533007966104802,0.041443829449110334
0.059,0.058896406590638065,0.22059677166948916,0.07757549930339411,0.0498587933138552,0.09770030131331355,0.30166503794313404,0.031263614063654716,0.05533884986730296,0.07951294559102136,0.20753774954546356,0.5566577711246348,0.04121174443992898
0.06,0.059302636423439054,0.22112514418193258,0.07802394763181235,0.049667505216534326,0.09822766670874597,0.30358651092133493,0.03130768970008307,0.05544582917990693,0.07996724100597992,0.212968113516166,0.5597568779727686,0.04097616875120407
0.061,0.059689050787389134,0.2215765215223226,0.07844597224398099,0.04942939401017401,0.09872966980540103,0.30544946365729503,0.03134074239437363,0.05553567246596377,0.08039215995424115,0.2184286497555714,0.5626008660766646,0.04073889667931208
0.062,0.06005558349909382,0.2219520913986228,0.07884204988861926,0.0491449370369084,0.09920725810286056,0.30725478731476513,0.03136296686097453,0.055608775203306135,0.08078807205373052,0.22392104036816046,0.5651926930407096,0.04050176482980885
0.063,0.0604021894210864,0.22225311275499043,0.07921268329097295,0.0488146612066276,0.09966138877476646,0.3090034147625176,0.031374576537063145,0.05566555007711812,0.08115537140508741,0.22944690807878254,0.5675355210475599,0.04026665031984948
0.064,0.06072884455799212,0.22248091263884023,0.07955840023832576,0.04843914324906272,0.10009302645130767,0.31069631714148493,0.03137580356791096,0.055706426590573815,0.08149447574516677,0.23500781137281906,0.5696327127249834,0.04003546890781462
0.065,0.06103554612831536,0.22263688296796322,0.07987975262741985,0.048019009940716055,0.1005031410101584,0.31233450041672645,0.031366898772406435,0.05573185067787605,0.08180582557131831,0.24060523974839976,0.5714878269927679,0.039810173051231856
0.066,0.061322312610766684,0.22272247720527502,0.08017731547522489,0.047554938305553046,0.10089270538117823,0.3139190019288663,0.031348131588319145,0.055742284320539785,0.0820898832391593,0.24624060909078194,0.5731046148986217,0.039592749894117915
0.067,0.0615891837640702,0.22273920694865862,0.08045168589445449,0.04704765578818965,0.10126269336979082,0.3154508869589433,0.03131978999677941,0.05573820516768999,0.0823471320365016,0.2519152571786141,0.5744870154515558,0.03938521918507206
0.068,0.061836220619585,0.22268863844319658,0.08070348203517397,0.04649794039848634,0.1016140775036991,0.31693124532002426,0.03128218042554863,0.05572010616118935,0.08257807523613554,0.25763043933152724,0.5756391514603778,0.03918963112741618
0.069,0.062063505446413716,0.22257238902288562,0.08093334199373635,0.04590662082630096,0.10194782690735169,0.3183611879882143,0.031235627630496112,0.05568849516618238,0.08278323513007045,0.26338732420785127,0.5765653253836327,0.03900806416282615
0.07,0.062271141689012016,0.2223921234885873,0.08114192269025491,0.04527457652516568,0.10226490520822894,0.3197418437851559,0.0311804745548497,0.05564389460761373,0.08296315204778054,0.26918698976061234,0.5772700151959915,0.038842622689983765
0.071,0.062459253877513526,0.22214955042884837,0.0813298987158151,0.04460273776365881,0.10256626847881659,0.3210743561231659,0.031117082165803302,0.05558684111312932,0.08311838336086423,0.27503041935912415,0.5777578702743578,0.03869543471990331
0.072,0.06262798751116624,0.22184641849035813,0.08149796115065491,0.0438920856430881,0.10285286321786509,0.3223598798233513,0.031045829268032586,0.05551788516259421,0.08324950247636886,0.28091849808266184,0.5780337073053656,0.03856864946975446
0.073,0.06277750891527582,0.22148451260501517,0.08164681635482217,0.04314365208025351,0.10312562437431447,0.32359957801601086,0.030967112293845352,0.05543759074442092,0.08335709782088073,0.28685200919180526,0.5781025062141786,0.03846443489714594
0.074,0.06290800507204876,0.22106565018118193,0.08177718473303155,0.04235851975391939,0.10338547341711342,0.32479461913149293,0.030881345069584322,0.055346535018652415,0.08344177181738507,0.292831630782164,0.5779694061126538,0.03838497517697849
0.075,0.0630196834257364,0.22059167726752946,0.08188979947576623,0.04153782201377484,0.1036333164540126,0.3259461739887326,0.03078895855805389,0.055245307986736006,0.08350413985682918,0.29885793262449417,0.5776397012631914,0.038332468123070694
0.076,0.0631127716623586,0.22006446469882004,0.08198540527890442,0.04068274275056509,0.10387004240231654,0.32705541298758434,0.03069040057672665,0.055134512167637886,0.08354482926633987,0.3049313731946369,0.577118837052811,0.03830912255680139
0.077,0.0631875174642539,0.219485904233944,0.08206475704444155,0.039794516226159385,0.10409652121440326,0.3281235034100158,0.030586135491559693,0.05501476227997679,0.08356447827611878,0.3110522968963052,0.5764124059705041,0.03831715562503333
0.078,0.06324418823968186,0.2188579046969468,0.08212861856502106,0.03887442686225965,0.1043136021608685,0.32915160683435213,0.03047664388633051,0.054886684929558185,0.08356373498709978,0.31722093147933816,0.5755261435798347,0.03835879006956991
0.079,0.06328307082756014,0.21818238813186785,0.0821777611952216,0.03792380898656303,0.10452211217392339,0.33014087666572073,0.03036242220742069,0.05475091830176221,0.08354325634149759,0.3234373856558638,0.5744659244779238,0.038436251450478624
0.08,0.06330447117745534,0.2174612859821315,0.08221296251252612,0.03694404653510395,0.1047228542537109,0.33109245578493873,0.030243982384002326,0.05460811185808147,0.08350370709848112,0.3297016469164269,0.5732377582315783,0.038551765325548853
0.081,0.06330871400477767,0.2166965353049198,0.08223500497120442,0.03593657270971608,0.10491660593995511,0.33200747431707145,0.030121851423497072,0.054458926036246,0.08344575881715882,0.336013579548001,0.5718477852812401,0.038707554388241715
0.082,0.06329614242112315,0.2158900750304383,0.08224467455236442,0.03490286958940638,0.10510411785112549,0.3328870475198011,0.029996570982236088,0.05430403195346804,0.08337008884899802,0.34237292285538423,0.5703022728033575,0.03890583556643401
0.083,0.06326711753962858,0.21504384227553827,0.08224275941355985,0.033844467694565714,0.10528611229309684,0.3337322737907968,0.02986869691111911,0.054144111112312744,0.08327737934177538,0.34877928958691756,0.568607610521725,0.03914881708449459
0.084,0.06322201805516063,0.21415976872038767,0.0822300485413108,0.03276294550283709,0.10546328193895421,0.33454423279247697,0.029738798776267374,0.05397985510882572,0.08316831625702621,0.35523216456483964,0.5667703064580896,0.039438695491165014
0.085,0.06316123979911413,0.21323977705634553,0.08220733040961418,0.03165992891552665,0.1056362885813416,0.33532398369183714,0.029607459354646416,0.05381196534247671,0.08304358840286176,0.3617309035195125,0.5647969826120546,0.039777652655971524
0.086,0.06308519526858514,0.21228577751263322,0.08217539164743129,0.030537090673367538,0.10580576195846177,0.33607256351244763,0.02947527410483937,0.05364115272747339,0.08290388648393879,0.36827473212603845,0.5626943705598896,0.0401678527369188
0.087,0.06299431312959293,0.2112996644688702,0.08213501571775708,0.029396149720529733,0.10597229865459022,0.3367909855953178,0.02934285061320972,0.053468137405012384,0.08274990217012129,0.37486274524116514,0.560469306961387,0.04061143912233327
0.088,0.0628890376940504,0.21028331316010468,0.0820869816108468,0.028238870515720715,0.10613646107570861,0.3374802381649352,0.029210808015825148,0.05329364845600019,0.08258232718535868,0.3814939063382809,0.5581287289635898,0.04111053134985622
0.089,0.06276982837013245,0.20923857648071167,0.08203206255392287,0.027067062289240627,0.10629877650070088,0.33814128299644564,0.029079776396466535,0.05311842361390164,0.0824018524182032,0.38816704713832245,0.555679669489773,0.04166722200570116
0.09,0.0626371590858648,0.20816728189315545,0.08197102473973368,0.02588257824490324,0.1064597362085213,0.33877505417955933,0.028950396161162763,0.0529432089774556,0.082209167055284,0.3948808674343654,0.553129252401481,0.04228357360742277
0.091,0.06249151768580789,0.20707122844737127,0.08190462607627096,0.024687314705718284,0.10661979468156514,0.3393824569745066,0.02882331738973724,0.05276875872308521,0.08200495773917116,0.4016339351076481,0.5504846875208922,0.04296161547350827
0.092,0.062333405300862996,0.20595218391604678,0.08183361495998794,0.023483210202344715,0.10677936888547579,0.3399643667549858,0.028699199164833503,0.052595834816965795,0.08178990775186204,0.4084246863324293,0.5477532655000142,0.0437033405832484
0.093,0.062163335691314214,0.20481188205071535,0.08175872907508587,0.022272244503335148,0.10693883762547322,0.34052162803298125,0.028578708879011892,0.052425206726662454,0.08156469622519082,0.4152514259668872,0.544942352522414,0.044510702430488165
0.094,0.06198183456339354,0.20365201996315652,0.08168069422143347,0.021056437586290024,0.1070985409791427,0.341055053560205,0.02846252152061574,0.052257651132380165,0.0813299973793161,0.42211232812721283,0.5420593848223897,0.04538561187490574
0.095,0.06178943885980143,0.2024742556361868,0.08160022317390227,0.01983784854904521,0.1072587798054423,0.3415654235008912,0.02835131893906806,0.052093951637799556,0.08108647979031974,0.4290054369422241,0.5391118630059842,0.0463299339946375
0.096,0.06158669602490262,0.20128020556761708,0.08151801457586022,0.018618574460088636,0.10741981532952795,0.3420534846707748,0.02824578909045913,0.05193489848051181,0.08083480568783524,0.43592866748648323,0.5361073461578157,0.047345484944040714
0.097,0.061374163245332645,0.2000714425506528,0.08143475186949775,0.01740074914740666,0.10758186880305923,0.3425199498372237,0.02814662526419752,0.051781288241949115,0.08057563028345206,0.44287980689065537,0.5330534457179243,0.048434028820327144
0.098,0.0611524066670187,0.1988494935935748,0.0813511022654843,0.01618654192497166,0.10774512123958464,0.3429654970757722,0.028054525291672492,0.05163392355673354,0.080309601130509,0.4498565156285759,0.5299578191132412,0.04959727454279533
0.099,0.060922000589583816,0.19761583798094523,0.08126771575421259,0.014978156256140664,0.10790971322479948,0.34339076917847894,0.02797019073775095,0.05149361282115782,0.08003735751585563,0.456856328981155,0.5268281631299363,0.05083687274823002
0.1,0.06068352663915429,0.19637190547821268,0.08118522416074127,0.013777828353290578,0.1080757448014425,0.3437963731096223,0.027894326076040688,0.051361169900410134,0.07975952988392422,0.46387665867726235,0.5236722070148578,0.052154412706005474
0.101,0.06043757292077529,0.1951190746811075,0.08110424024525736,0.012587825713087357,0.10824327542870667,0.3441828795040363,0.027827637848806985,0.051237413834030576,0.07947673929351301,0.470914794711581,0.5204977052970785,0.053551419256551394
0.102,0.060184733151664636,0.1938586715109884,0.08102535685086419,0.011410445586815548,0.10841232401591439,0.3445508222033152,0.027770833812426562,0.05112316853888515,0.07918959690753323,0.4779679073388793,0.5173124303230161,0.05502934977677669
0.103,0.05992560577687314,0.1925919678569545,0.08094914610029288,0.010248013385258452,0.10858286903010146,0.34490069782517446,0.02772462206926049,0.05101926250884727,0.07889870351599318,0.4850330492436296,0.5141241645015538,0.056589591176505104
0.104,0.05966079306901976,0.19132018036544335,0.08087615864313617,0.009102881017783719,0.10875484867705305,0.34523296536183895,0.027689710186851388,0.050926528510270914,0.0786046490924001,0.492107157883227,0.5109406922586482,0.05823345693007327
0.105,0.05939090021386125,0.19004446937790348,0.08080692295509383,0.007977425165294535,0.10892816115523397,0.3455480458042437,0.027666804305329126,0.05084580327243756,0.07830801238369377,0.49918705800234514,0.5077697917044772,0.059962184147673465
0.106,0.05911653438351022,0.1887659380170944,0.08074194469064234,0.006874045486910948,0.10910266498203738,0.34584632179056396,0.027656608234010092,0.05077792717207686,0.07800936053376786,0.5062694643152087,0.5046192260195753,0.06177693069135072
0.107,0.058838303799029976,0.18748563142249708,0.08068170609042451,0.005795162760307052,0.10927817939181263,0.34612813727901093,0.027659822538156454,0.050723743911137875,0.07770924874053894,0.5133509843515646,0.5014967345695749,0.0636787723408689
0.108,0.05855681678413973,0.18620453613511864,0.08062666544445021,0.004743216955637596,0.10945448480500863,0.34639379724614316,0.027677143616875205,0.050684100186948064,0.07740821994640415,0.5204281214613391,0.49841002376068677,0.06566870001488083
0.109,0.05827268081166886,0.1849235796316549,0.08057725661212015,0.003720665243109789,0.10963132336771057,0.3466435674126083,0.02770926277320843,0.05065984535381205,0.07710680456190394,0.5274972779719945,0.4953667576498496,0.0677476170531722
0.11,0.05798650154449621,0.1836436300075266,0.08053388859983153,0.0027299799342667087,0.10980839956060588,0.34687767399816877,0.02775686527733611,0.050651831075128814,0.07680552022231144,0.5345547584918009,0.4923745483249651,0.06991633656584965
0.111,0.05769888187271123,0.18236549580781294,0.08049694519679282,0.0017736463571177172,0.10998538087611079,0.347096303507407,0.027820629424054402,0.050660910965026444,0.07650487157668896,0.5415967733516079,0.48944094607266775,0.07217557885560384
0.112,0.05741042094892982,0.1810899260047307,0.08046678466953029,0.0008541606653988863,0.11016189856221252,0.34729960254652076,0.02790122558550658,0.05068794021851331,0.07620535010888853,0.5486194421776309,0.48657342935412573,0.07452596891917292
0.113,0.05712171322389943,0.1798176101199621,0.08044373951528332,2.5972417637888158e-05,0.11033754843129635,0.3474876776708695,0.027999315260467523,0.050733775229019965,0.07590743398976367,0.5556187975885796,0.4837793946132823,0.07696803403416105
0.114,0.056833347484772735,0.17854917849011917,0.08042811627438091,0.0008642419203580689,0.11051189173216783,0.34766059526233073,0.028115550121294377,0.05079927319216878,0.07561158795972432,0.5625907890121719,0.4810661459457132,0.07950220143731886
0.115,0.05654590589870751,0.17728520267336628,0.08042019540141934,0.0016581330080965033,0.11068445608342219,0.3478183814354932,0.0282505710599346,0.050885291694488896,0.07531826324077709,0.569531286618513,0.47844088465896023,0.08212879610045612
0.116,0.056259963064487606,0.1760261959952868,0.0804202311949352,0.0024051294319094754,0.11085473646616958,0.34796102197181245,0.028405007234327023,0.05099268828577021,0.07502789747692777,0.5764360853700432,0.4759106987565288,0.08484803861013386
0.117,0.05597608507502488,0.17477261423187723,0.08042845178504833,0.003102716039780582,0.11102219627421767,0.34808846228136303,0.02857947511673315,0.051122320033678205,0.07474091470184963,0.5833009091893114,0.4734825523773436,0.08766004315739344
0.118,0.05569482859345794,0.17352485642730364,0.080445059178464,0.003748381349228763,0.11118626841973621,0.34820060739239844,0.02877457754560247,0.051275043059286346,0.0744577253325243,0.5901214152465007,0.4711632752215532,0.09056481564363267
0.119,0.05541673994558559,0.17228326584377804,0.0804702293600216,0.004339620180141904,0.11134635649254779,0.3482973219699215,0.028990902782615336,0.051451712052142516,0.07417872618736322,0.5968931983684972,0.4689595519921225,0.09356225190869549
0.12,0.05514235423122068,0.17104813104040592,0.0805041124498555,0.004873936346605206,0.1115018359712122,0.3483784303656993,0.02922902357666906,0.051653179763528775,0.07390430052728275,0.6036117955709968,0.46687791188021444,0.09665213608702763
0.121,0.054872194456986996,0.16981968707757206,0.0805468329150688,0.005348845406366634,0.11165205548438376,0.3484437167035621,0.029489496236514385,0.05188029647650715,0.07363481811808417,0.6102726907144653,0.46492471812091635,0.09983413909760375
0.122,0.05460677069291418,0.16859811684299023,0.08059848983460549,0.0057618774664678265,0.1117963381211532,0.3484929250052102,0.029772859713739226,0.052133909451450425,0.07337063531243142,0.6168713192839814,0.4631061576443558,0.1031078172731065
0.123,0.054346579255082475,0.16738355249530704,0.08065915721586361,0.00611058004341173,0.11193398278950624,0.3485257593628827,0.03007963469779069,0.05241486234572773,0.07311209514978552,0.6234030732918232,0.46142823084577167,0.10647261113377401
0.124,0.05409210191640116,0.16617607702080445,0.0807288843612888,0.006392520976127868,0.11206426562223232,0.3485418841658744,0.030410322724604866,0.05272399460648555,0.07285952747268945,0.629863306300604,0.4598967414966248,0.10992784431117292
0.125,0.053843805147451455,0.16497572589846154,0.08080769628297296,0.006605291389836777,0.11218644142971253,0.348540924388284,0.030765405300384106,0.05306214083546999,0.07261324905785539,0.6362473385639252,0.4585172868175475,0.11347272262697361
0.126,0.053602139389156554,0.16378248886832808,0.0808955941630702,0.006746508708782435,0.11229974519907711,0.3485224659454706,0.031145343042016896,0.05343013012510179,0.07237356376058626,0.6425504622811267,0.457295247732926,0.11710633333159452
0.127,0.053367538358837514,0.16259631179783843,0.0809925558576429,0.006813819715721855,0.11240339363903952,0.34848605612662537,0.03155057483547297,0.05382878536507911,0.0721407626710736,0.6487679469629384,0.4562357793261253,0.1208276445072878
0.128,0.053140418391080774,0.16141709864048484,0.08109853644148488,0.00680490365596539,0.11249658676983068,0.3484312041107724,0.03198151701355985,0.05425892251898791,0.07191512428125231,0.6548950449053343,0.4553438015140632,0.1246355046399809
0.129,0.05292117781467062,0.16024471348095837,0.08121346879148907,0.006717475383532998,0.11257850955751156,0.348357381573088,0.03243856255413189,0.05472134987033289,0.07169691466081315,0.6609269967692342,0.45462398995969067,0.1285286423639015
0.13,0.05271019636666705,0.1590789826604644,0.08133726420601134,0.006549288546941246,0.11264833359192283,0.3482640233880661,0.03292208029999732,0.05521686723767582,0.07148638764118853,0.6668590372636747,0.4540807672409788,0.13250566638268016
0.131,0.052507834644603665,0.1579196969756818,0.08146981305772602,0.0062981388118357835,0.11270521880723944,0.3481505284352654,0.033432414201449656,0.055746265158589145,0.07128378500629293,0.6726864009293829,0.45371829429508204,0.13656506557029352
0.132,0.05231443359753836,0.15676661394439742,0.08161098547732659,0.005961867117490249,0.11274831524390519,0.34801626051257883,0.033969882582461926,0.05631032404235582,0.07108933668902251,0.6784043280187765,0.45354046215665716,0.14070520925471375
0.133,0.05213031405664974,0.15561946013081845,0.08176063206529639,0.005538362963953529,0.1127767648504533,0.34786054936091143,0.034534777431419646,0.05690981329150581,0.07090326097267194,0.6840080704675943,0.4535508840096949,0.14492434768681298
0.134,0.051955776305833284,0.15447793352328895,0.08191858462890063,0.005025567726247665,0.11278970332351852,0.34768269180331274,0.035127363717242406,0.05754549039221016,0.07072576469642157,0.689492897952524,0.45375288757255045,0.1492206126965061
0.135,0.05179109969265063,0.15334170595702998,0.08208465694135685,0.004421477991928415,0.11278626198430426,0.3474819530005962,0.035747878731759546,0.058218099973710864,0.07055704346424711,0.6948541040285998,0.45414950783604807,0.1535920185377648
0.136,0.05163654227990507,0.15221042557430642,0.08225864552009594,0.003724148917975281,0.11276556968960673,0.34725756782455247,0.03639653145910192,0.05892837283688994,0.07039728185640753,0.7000870123396327,0.45474348017453853,0.15803646292360995
0.137,0.05149234053787011,0.15108371931421483,0.08244033042090353,0.0029316976028796048,0.11272675477546001,0.3470087423490273,0.037073501972901025,0.05967702495241846,0.07024665364275426,0.7051869828944013,0.4555372338500189,0.16255172825182368
0.138,0.05135870907725064,0.1499611954240392,0.08262947604474771,0.002042306469604934,0.11266894703135003,0.3467346554582373,0.037778940862089466,0.06046475642920771,0.0701053219971927,0.7101494184006761,0.4565328859290984,0.1671354830216669
0.139,0.051235840422704175,0.1488424459839829,0.08282583195413075,0.0010542266548155927,0.11259127970284098,0.34643446057076804,0.03851296868601415,0.061292250454354776,0.06997343971253435,0.714969770648777,0.45773223563216503,0.17178528344158997
0.14,0.05112390482686897,0.1477270494368635,0.08302913369593003,3.421860044249851e-05,0.11249289152040318,0.3461072874769419,0.03927567545970931,0.06216017220619671,0.06985114941523696,0.7196435469362652,0.4591367591331689,0.17649857522745815
0.141,0.051023050124710555,0.1466145731141034,0.08323910362783665,0.001224630563788856,0.11237292875197477,0.3457522442864058,0.040067120170125994,0.06306916774248336,0.06973858377947065,0.724166316525723,0.4607476048271544,0.18127269559055623
0.142,0.05093340162800622,0.14550457574895226,0.0834554517457446,0.002518531633666346,0.11223054727665101,0.34536841948233926,0.04088733032414888,0.06401986286600528,0.06963586574013235,0.728533717127551,0.4625655890812127,0.186104875414252
0.143,0.05085506205974423,0.1443966099677533,0.08367787650962126,0.003917361976283504,0.11206491467667218,0.3449548840782313,0.04173630152925552,0.06501286197035858,0.06954310870440016,0.7327414613992975,0.46459119248287034,0.1909922416177258
0.144,0.05078811152810338,0.14329022474967792,0.08390606566574818,0.005422476183239682,0.11187521234477488,0.34451069387313626,0.042613997107579994,0.06604874686887334,0.06946041676138894,0.7367853434522231,0.46682455659835814,0.19593181970483795
0.145,0.050732607539710206,0.14218496784524895,0.08413969706354012,0.007035139955844954,0.11166063760379621,0.3440348918009005,0.04352034774418549,0.06712807561003546,0.06938788488952807,0.7406612453549124,0.46926548125190237,0.20092053649560662
0.146,0.05068858505165856,0.14108038814381144,0.08437843946534652,0.008756526822405577,0.1114204058355156,0.34352651036853094,0.04445525117020429,0.06825138128304714,0.06932559916113798,0.7443651436229674,0.4719134223359075,0.20595522303746858
0.147,0.05065605656186169,0.13997603798016553,0.08462195334803807,0.010587714894680442,0.11115375261562464,0.3429845741781126,0.045418571881593865,0.06941917081747975,0.06927363694381236,0.7478931156828929,0.47476749016097075,0.21103261769314693
0.148,0.05063501223716838,0.138871475370785,0.08486989169506363,0.012529683669909602,0.11085993585189623,0.3424081025260019,0.04641014089409865,0.07063192378102555,0.06923206709820023,0.7512413462973953,0.47782644835356514,0.21614936940182056
0.149,0.05062542007862739,0.13776626617030185,0.08512190077783918,0.014583310884806695,0.11053823792252646,0.3417961120721555,0.04742975553511563,0.0718900911796099,0.069200950171744,0.7544061339378059,0.481088713308198,0.221302041110111
0.15,0.050627226123161756,0.13665998613920247,0.08537762092521478,0.016749369428015068,0.11018796781158238,0.3411476195718259,0.048477179273055955,0.07319409426407755,0.06918033858802347,0.7573838970876272,0.48455235419943327,0.2264871133693569
0.151,0.05064035468084086,0.1355522229141013,0.08563668727978554,0.019028524317556614,0.10980846323833211,0.340461644661008,0.04955214158484779,0.07454432334768547,0.06917027683131512,0.7601711804592486,0.48821509355775855,0.2317009880955308
0.152,0.050664708606892275,0.13444257787253888,0.08589873053982226,0.021421329749858057,0.10939909277700614,0.33973721268627965,0.05065433786218302,0.07594113663854404,0.06917080162594724,0.7627646611044311,0.4920743084116436,0.2369399924882778
0.153,0.05070016960765182,0.13333066788516404,0.08616337768572763,0.0239282262269342,0.10895925796347636,0.33897335756920965,0.05178342935718762,0.0773848590909577,0.06918194211000786,0.7651611543987955,0.49612703199636476,0.2422003831055498
0.154,0.05074659857972152,0.132216126949412,0.08643025268998045,0.026549537768235855,0.10848839538507252,0.33816912469494054,0.0529390431681476,0.07887578127952012,0.06920372000283392,0.7673576198810849,0.5003699560284331,0.24747835009039423
0.155,0.050803835981748674,0.13109860770035242,0.08669897720973883,0.02928546921376579,0.10798597874978123,0.3373235738143661,0.054120772265906454,0.08041415829959103,0.06923614976583373,0.7693511669296468,0.5047994335426682,0.2527700215462042
0.156,0.05087170223822342,0.1299777827960153,0.08696917126140964,0.03213610362503431,0.10745152093093828,0.33643578194879953,0.0553281755615502,0.08200020869773361,0.06927923875608714,0.7711390602610904,0.5094114822871012,0.2580714680562742
0.157,0.05094999817470522,0.12885334617614888,0.08724045387643019,0.035101399790486786,0.10688457598362462,0.3355048462856346,0.056560778015884466,0.08363411343543688,0.06933298737235491,0.7727187252389682,0.5142017886691412,0.263378707343008
0.158,0.05103850548375615,0.1277250141949534,0.08751244373773376,0.038181189842134255,0.10628474112892745,0.33452988705300557,0.057818070791247816,0.08531601488933843,0.06939738919301344,0.7740877529831534,0.5191657122446143,0.26868770906136624
0.159,0.05113698722080039,0.12659252662950363,0.08778475979643682,0.04137517699001668,0.10565165870219738,0.3335100503610924,0.059099511446081,0.08704601589090258,0.06947243110555719,0.7752439052723362,0.5242982907397369,0.273994399720583
0.16,0.05124518832895928,0.1254556475667406,0.08805702186844805,0.04468293338120864,0.10498501806135342,0.3324445109976117,0.06040452417278305,0.08882417880844556,0.06955809342724305,0.7761851192332944,0.529594245594788,0.27929466772733264
0.161,0.0513628361919009,0.12431416617247432,0.08832885121094079,0.04810389808989108,0.10428455745116327,0.3313324751651678,0.061732500079239305,0.0906505246740884,0.06965435001665185,0.7769095118110757,0.5350479880174108,0.28458436854288705
0.162,0.05148964121374292,0.1231678973464856,0.08859987107868618,0.051637375245018095,0.10355006581942543,0.3301731831487473,0.06308279751440349,0.09252503235821037,0.06976116837591415,0.7774153840143296,0.5406536255328385,0.2898593299459051
0.163,0.05162529742495467,0.1220166822679572,0.08886970726045136,0.05528253230194321,0.10278138458105189,0.32896591190280144,0.06445474243818645,0.09444763779361492,0.06987850974365097,0.7777012249294284,0.5464049690182823,0.2951153573918139
0.164,0.05176948311328659,0.12086038883551664,0.08913798859573367,0.059038398464382726,0.1019784093262656,0.32770997754875847,0.06584762883587954,0.09641823325156636,0.07000632917871195,0.7777657154960004,0.552295540208879,0.30034823945922035
0.165,0.05192186147860141,0.11969891200599342,0.08940434747203012,0.06290386326294524,0.10114109146926124,0.32640473777536694,0.06726071917707564,0.09843666667155096,0.07014457563509026,0.7776077320356843,0.5583185796631521,0.3055537533731765
0.166,0.052082081310515616,0.11853217403588329,0.08966842030282496,0.0668776752964482,0.10026943983409047,0.32504959413547047,0.06869324491913831,0.10050274104647487,0.07029319202851374,0.7772263495250217,0.5644670551767397,0.3107276705947269
0.167,0.052249777687712246,0.1173601246294525,0.08992984798641779,0.07095844114202486,0.09936352217480837,0.32364399423367685,0.07014440705496675,0.10261621386475114,0.07045211529523783,0.7766208446029682,0.5707336706341465,0.315865762465716
0.168,0.052424572697719656,0.11618274099740059,0.09018827634581528,0.07514462444003038,0.09842346662727643,0.3221874338000337,0.07161337670487597,0.10477679661056902,0.07062127644387406,0.7757906983026386,0.5771108752892942,0.32096380589724843
0.169,0.052606076175950575,0.11500002782995314,0.09044335655001265,0.07943454515947648,0.0974494630902535,0.3206794586454759,0.07309929575217816,0.10698415432344492,0.07080060060102143,0.7747355984962058,0.5835908734661367,0.3260175890897107
0.17,0.052793886462682106,0.11381201718808037,0.09069474551708781,0.08382637904969037,0.0964417645337013,0.3191196664961237,0.07460127752195793,0.10923790521798647,0.0709900070516246,0.7734554420410059,0.5901656346705786,0.33102291727160765
0.171,0.052987591176556055,0.11261876831637824,0.09094210629943122,0.08831815728361958,0.09540068823241651,0.3175077087048333,0.07611840750243336,0.1115376203646696,0.07118940927482645,0.7719503366140047,0.5968269041043025,0.3359756184439853
0.172,0.053186768003027685,0.11142036738083012,0.09118510845136986,0.09290776629806108,0.09432661692332474,0.3158432918395437,0.07764974410813326,0.11388282343216162,0.07139871497595451,0.7702206022209378,0.6035662135701144,0.3408715491167769
0.173,0.05339098549620969,0.11021692713453432,0.09142342837904122,0.09759294783591525,0.09321999988503432,0.31412617914851443,0.07919431948397936,0.11627299049162099,0.0716178261152976,0.7682667723656538,0.6103748927573116,0.3457066000232273
0.174,0.05359980389244668,0.10900858651423054,0.09165674967229749,0.10237129919524945,0.09208135393831468,0.3123561919027844,0.0807511403493445,0.11870754988318583,0.07184663893422176,0.7660895948654652,0.6172440808944704,0.3504767017983198
0.175,0.053812775934027,0.10779551017047934,0.09188476341804748,0.10724027368988644,0.09091126436641822,0.310533210616467,0.08231918888102738,0.12118588214479468,0.07208504397923916,0.7636900322999877,0.6241647387561625,0.3551778306069699
0.176,0.05402944770147856,0.10657788793422712,0.09210716849442836,0.11219718132593871,0.08971038575404872,0.3086571761456044,0.08389742363410553,0.12370732000335294,0.07233292612457697,0.7610692620840689,0.6311276610093577,0.35980601370748616
0.177,0.05424935945299114,0.10535593422257601,0.09232367184512764,0.11723918969858195,0.08847944274368537,0.3067280906667353,0.08548478049955421,0.12627114842815962,0.07259016459388569,0.7582286761596299,0.6381234888842717,0.36435733493562417
0.178,0.05447204646946238,0.10412988738658142,0.09253398873330552,0.12236332511310886,0.08721923070774944,0.3047460185363373,0.08708017369755314,0.12887660474639048,0.07285663298173006,0.7551698803053474,0.6451427231534059,0.3688279400948444
0.179,0.05469703990374673,0.1029000090039684,0.09273784297479389,0.12756647393411608,0.08593061633493254,0.3027110870324096,0.08868249680545609,0.13152287882033425,0.07313219927555231,0.75189469306634,0.6521757374011019,0.3732140422392595
0.18,0.05492386763263662,0.10166658311975942,0.0929349671503753,0.13284538416634709,0.08461453812888653,0.30062348697940705,0.09029062381950492,0.13420911328614377,0.07341672587872164,0.7484051443083529,0.6592127915645858,0.3775119268372361
0.181,0.0551520551101977,0.1004299154379916,0.0931251027970706,0.13819666727039123,0.08327200681736048,0.2984834732573011,0.09190341024949644,0.13693440385385416,0.0737100696352243,0.7447034734022417,0.6662440457259045,0.3817179568049887
0.182,0.05538112622104845,0.09919033246789032,0.09330800057832847,0.14361680021613246,0.0819041056698493,0.29629136519529314,0.0935196942457015,0.1396977996685017,0.07401208185640104,0.7407921270456446,0.6732595741325075,0.3858285774006016
0.183,0.05561060413232801,0.09794818062790009,0.09348342043296327,0.14910212777642007,0.08051199072176524,0.29404754685014284,0.0951382977573936,0.14249830373217803,0.07432260835005274,0.7366737567295512,0.6802493794228393,0.38984032096978677
0.184,0.055840012143107125,0.09670382531113107,0.0936511317026978,0.15464886506301603,0.07909689090318595,0.29175246716902176,0.09675802772230731,0.1453348733870281,0.07464148945217748,0.7323512158583283,0.687203407032129,0.3937498115350809
0.185,0.05606887453010319,0.09545764991589288,0.09381091323831607,0.16025310030651368,0.07766010807029944,0.2894066400366077,0.09837767728641039,0.1482064208592476,0.07496856006144229,0.7278275565323759,0.6941115597529371,0.39755376922079283
0.186,0.05629671738859479,0.09421005484514995,0.09396255348475809,0.16591079788135538,0.07620301693777212,0.28701064420620487,0.09999602705323327,0.1511118138644829,0.07530364967650653,0.7231060260032609,0.7009637124250371,0.40124901450630834
0.187,0.05652306946742308,0.09296145647890242,0.09410585054579133,0.17161780157670906,0.07472706491055321,0.2845651231146827,0.10161184636210213,0.1540498762750886,0.07564658243618637,0.7181900628119267,0.7077497267302799,0.4048324723006747
0.188,0.056747462996877586,0.09171228612361308,0.09424061222927842,0.17736983811330445,0.07323377181369743,0.2820707845810183,0.10322389459451163,0.15701938884982822,0.07599717716235393,0.7130832926215768,0.7144594660704605,0.4083011758315717
0.189,0.05696943450830307,0.09046298894294232,0.09436665607418249,0.1831625209057906,0.07172472951899293,0.27952840038831256,0.1048309225078506,0.16001909002648126,0.07635524740541477,0.7077895237575448,0.7210828105092092,0.4116522703420952
0.19,0.057188525643988665,0.08921402287397515,0.09448380936070203,0.18899135406958745,0.0702016014673373,0.2769388057490567,0.10643167359554935,0.16304767677767132,0.07672060149217211,0.7023127424666522,0.7276096717621142,0.4148830165892353
0.191,0.05740428395593188,0.08796585753307734,0.09459190910494719,0.19485173667055095,0.06866612208583972,0.2743028986539146,0.1080248854725862,0.1661038055300626,0.07709304257588442,0.6966571079082223,0.734030008221757,0.41799079413815815
0.192,0.057616263691908406,0.08671897311555168,0.09469080203943253,0.20073896721519935,0.06712009609895615,0.2716216391046243,0.10960929128506293,0.169186093147075,0.07747236868845232,0.6908269468882261,0.7403338400065502,0.42097310444662506
0.193,0.05782402656714565,0.08547385929309595,0.09478034458066287,0.20664824837863682,0.06556539773316644,0.2688960482325126,0.1111836211423145,0.17229311797503383,0.07785837279469508,0.684826748347472,0.7465112640238881,0.4238275737343779
0.194,0.05802714251990076,0.08423101411309004,0.0948604027847419,0.21257469196650663,0.06400396981494882,0.2661272073045675,0.11274660356973419,0.1754234209527027,0.07825084284892395,0.678661157614225,0.7525524690394532,0.4265519556337503
0.195,0.058225190449081976,0.08299094290343788,0.09493085229181067,0.21851332410681673,0.062437822761999114,0.26331625661961033,0.11429696698032027,0.17857550678368536,0.07864956185412257,0.6723349704314944,0.7584477507448794,0.4291441336197086
0.196,0.05841775893200936,0.08175415718659074,0.09499157825992358,0.2244590906665634,0.060869033467787145,0.2604643942972674,0.1158334411627587,0.18174784517092346,0.07905430792434316,0.6658531267691642,0.764187526815231,0.43160212321973673
0.197,0.058604446920294505,0.08052117360607097,0.09504247528876618,0.23040686288752638,0.05929974407971889,0.25757287496263087,0.11735475878375376,0.18493887211190937,0.07946485435102402,0.6592207044316769,0.7697623519464956,0.4339240740055984
0.198,0.05878486441182397,0.07929251286860536,0.09508344733347958,0.2363514432347949,0.05773216067115896,0.2546430083292276,0.118859656902487,0.1881469912526363,0.07988096967396423,0.6524429124722795,0.775162932861557,0.4361082713699092
0.199,0.05895863309690005,0.07806869870464021,0.09511440760877518,0.24228757145100102,0.05616855180779684,0.2516761576827176,0.12034687849500131,0.1913705752978402,0.08030241775770178,0.6455250844252222,0.7803801432709746,0.43815313809126927
0.2,0.059125386976571596,0.07685025684973361,0.09513527848357034,0.24820993080845985,0.054611247008702075,0.24867373826749323,0.12181517398648939,0.19460796747452536,0.08072895787393987,0.6384726713668843,0.7854050387726355,0.4400572356922178
0.201,0.059284772951450224,0.07563771404901574,0.09514599136638434,0.254113154550903,0.053062635102495675,0.2456372155783412,0.12326330278953501,0.19785748304553893,0.08116034479065372,0.6312912348161761,0.7902288716714523,0.44181926559543794
0.202,0.059436451379264774,0.07443159708669002,0.0951464865818235,0.25999183251568,0.05152516247904423,0.24256810355958358,0.12469003484641654,0.20111741086967522,0.08159632886836618,0.6239864394835394,0.7948431056977011,0.4434380700846442
0.203,0.059580096599526476,0.07323243184222616,0.09513671323839465,0.26584051792677593,0.050001331237311084,0.23946796271463094,0.12609415217363845,0.20438601500456663,0.08203665616413663,0.6165640458771972,0.7992394305998821,0.4449126330778787
0.204,0.05971539742370904,0.07204074237474059,0.09511662908787792,0.2716537343482481,0.048493697230015315,0.2363383981294824,0.12747445040690328,0.2076615363484283,0.0824810685436985,0.609029902775587,0.8034097765855885,0.44624208072191573
0.205,0.05984205758933472,0.07085705003680885,0.09508620037646057,0.27742598278690495,0.04700486800625595,0.23318105741417375,0.12882974034462324,0.21094219431659778,0.08292930380217549,0.6013899395756344,0.8073463285816459,0.44742568181737297
0.206,0.059959796176333284,0.0696818726189028,0.0950454016877991,0.2831517489324166,0.04553750065323,0.22999762856646142,0.13015884948803103,0.2142261885487368,0.08338109579379094,0.5936501585283112,0.811041540282686,0.44846284808456527
0.207,0.06006834798409164,0.06851572352541056,0.09499421577833114,0.2888255105223946,0.04409429953855762,0.22678983776222458,0.13146062357576724,0.21751170064261605,0.08383617457092321,0.5858166268745219,0.8144881479552262,0.44935313428041707
0.208,0.06016746386766189,0.06735911098315027,0.09493263340531478,0.29444174481959823,0.042678013954812966,0.22355944707711978,0.1327339281105269,0.22079689591051418,0.08429426653274608,0.5778954688959489,0.8176791839626311,0.45009623817674765
0.209,0.06025691103192248,0.06621253728311298,0.09486065314825394,0.29999493618816037,0.041291435668042165,0.22030825214413283,0.13397764987508756,0.2240799251539662,0.08475509458364028,0.5698928578959441,0.8206079899746523,0.4506920004099318
0.21,0.06033647328297296,0.06507649805604544,0.09477828122453553,0.30547958375541395,0.03993739637225727,0.2170380797516046,0.13519069843465573,0.22735892645255523,0.08521837830137313,0.5618150081256589,0.8232682298240481,0.45114040421135493
0.211,0.06040595123665591,0.06395148158225504,0.0946855313003803,0.3108902091455944,0.03861876505202219,0.21375078538614398,0.1363720076221274,0.23063202696205273,0.08568383411497225,0.5536681666698768,0.8256539019720311,0.4514415750270969
0.212,0.060465162484848976,0.06283796813593966,0.09458242429817197,0.3162213642712191,0.037338445255424846,0.2104482507249259,0.13752053700263006,0.23389734471705428,0.08615117549203027,0.5454586053064278,0.8277593515442291,0.45159578003414325
0.213,0.06051394172062308,0.06173642936412205,0.09446898820139692,0.32146763916743293,0.0360993722796948,0.20713238108193027,0.13863527331340975,0.23715299043315036,0.08662011313507162,0.5371926123521392,0.8295792818992106,0.4516034275591496
0.214,0.06055214082374363,0.060647327700095864,0.09434525785837292,0.3266236698540492,0.034904510271898816,0.20380510281312456,0.13971523187512938,0.24039706930350022,0.08709035518631746,0.5288764845076485,0.8311087656919824,0.4514650664043737
0.215,0.060579628908064814,0.05957111581122392,0.09421127478590097,0.33168414620973047,0.033756849246962956,0.20046836068599294,0.1407594579706685,0.2436276827845782,0.08756160744015336,0.520516518712949,0.832343255394841,0.45118138508411076
0.216,0.06059629233240508,0.05850823608090294,0.09406708697385972,0.336643819842534,0.03265940202539778,0.19712411521943413,0.1417670281877041,0.24684293036591973,0.08803357356240461,0.5121190040258008,0.8332785932372628,0.45075321097351156
0.217,0.06060203467639068,0.05745912012452223,0.09391274869172489,0.3414975119413429,0.031615201092999264,0.19377434000036536,0.1427370517215942,0.250040911318547,0.08850595531544496,0.503690213536452,0.8339110205254332,0.45018150937053203
0.218,0.060596776682740654,0.056424188339378824,0.09374832029782863,0.34624012109338076,0.030627295384740134,0.19042101898344255,0.14366867163525082,0.25321972641698876,0.08897845278803153,0.4952363963338686,0.8342371863002553,0.44946738247040896
0.219,0.06058045616740338,0.05540384948856816,0.09357386805221957,0.35086663105391996,0.02969874699513727,0.1870661437802633,0.1445610660727496,0.256377479629914,0.08945076462870293,0.4867637695402824,0.8342541552907006,0.4486120682507662
0.22,0.060553027898827,0.05439850031893218,0.09338946393383982,0.3553721184556516,0.028832627817278106,0.1837117109441941,0.1454134494236068,0.2595122797747558,0.08992258828154838,0.4782785104317833,0.833959415116776,0.4476169392642868
0.221,0.06051446344760106,0.0534085252130889,0.09319518546286118,0.35975176044657964,0.02803201611282112,0.18035971925678027,0.14622507343465674,0.2626222421321986,0.09039362022320892,0.4697867486627481,0.833350882693815,0.44648350133484194
0.222,0.060464751007719926,0.052434295875694883,0.09299111552895807,0.36400084224643,0.027299993015447655,0.1770121670215555,0.14699522826665234,0.26570549001698684,0.09086355619995282,0.46129455861100127,0.8324269097873366,0.445213392152469
0.223,0.06040389519064687,0.051476171053900656,0.09277734222632733,0.3681147646125658,0.0266396389702079,0.1736710493708274,0.14772324349278607,0.2687601563022563,0.09133209146369171,0.4528079518594966,0.8311862876662569,0.4438083797622287
0.224,0.06033191679352766,0.050534496291985836,0.09255395869622193,0.37208905120676034,0.02605403011145329,0.1703383555908283,0.14840848903656545,0.2717843848952437,0.09179892100572122,0.4443328698289615,0.82962825080299,0.44227036094232663
0.225,0.06024885254282271,0.04960960372000143,0.09232106297757782,0.3759193558542629,0.025546234581960023,0.1670160664703966,0.1490503760466443,0.27477633216251174,0.09226373978696202,0.43587517657503577,0.8277524795730927,0.4406013594674237
0.226,0.06015475481475194,0.04870181187627318,0.09207875786628565,0.3796014696862305,0.025119308796148473,0.1637061516779798,0.149648357706526,0.2777341683030775,0.09272624296367409,0.4274406517628922,0.8255591019151465,0.43880352425402314
0.227,0.06004969133396204,0.047811425563396966,0.09182715078353797,0.3831313281558344,0.024776293650412017,0.16041056717143193,0.15020192997717102,0.28065607866770464,0.0931861261076745,0.41903498383206494,0.8230486939220237,0.4368791273855084
0.228,0.059933744851876546,0.04693873573735989,0.09156635365351191,0.3865050179173836,0.02452021068391678,0.1571312526447224,0.15071063227109938,0.28354026502285734,0.09364308542053362,0.4106637633641222,0.8202222793455178,0.43483056201452525
0.229,0.05980701280630327,0.04608401942914431,0.09129648279049088,0.3897187835567291,0.024354058193515084,0.15387012901557165,0.15117404805685333,0.28638494675804665,0.094096817941282,0.40233247666546007,0.8170813280056193,0.43266034013997595
0.23,0.05966960696397702,0.045247539698108796,0.09101765879536951,0.39276903415974096,0.02428080730663855,0.15062909595792126,0.15159180539315753,0.2891883620359048,0.09454702174754304,0.3940464995769695,0.8136277531040882,0.43037109025502523
0.231,0.05952165304775037,0.04442954561632011,0.09073000646136407,0.39565234970448343,0.02430339801636063,0.14741002948323517,0.15196357739219976,0.2919487688848106,0.09499339615000404,0.38581109152170734,0.809863907450361,0.4279655548616696
0.232,0.059363290350115616,0.04363027228292018,0.09043365468860973,0.39836548726151355,0.024424735182871547,0.14421477957446568,0.15228908261139265,0.29466444623456933,0.09543564188030246,0.3776313898010945,0.8057925786173917,0.425446587846756
0.233,0.05919467133462462,0.04284994086751123,0.09012873640742133,0.400905386985753,0.024647684505770494,0.14104516787631383,0.15256808537301633,0.29733369489617334,0.09587346127243881,0.3695124041498692,0.8014169830551033,0.4228171517143908
0.234,0.05901596122663498,0.042088758681552735,0.08981538850984379,0.4032691778825661,0.02497506847171276,0.137902985445127,0.15280039601135156,0.2999548384872986,0.09630655843775356,0.3614590115596453,0.7967407591982576,0.4200803146705322
0.235,0.0588273375946888,0.04134691927659385,0.08949375178917039,0.4054541833296736,0.025409662281989202,0.1347899905615246,0.1529858710473116,0.3025262243058297,0.09673463943342288,0.3534759513807995,0.7917679596122386,0.4172392475570349
0.236,0.05862898992366845,0.04062460256827419,0.0891639708870152,0.40745792633562744,0.025954189764753745,0.13170790660872794,0.15312441329127058,0.30504622415443483,0.09715741242433759,0.34556782071184144,0.7865030422238546,0.4142972206341188
0.237,0.05842111918084192,0.03992197498492179,0.08882619424754352,0.40927813451439454,0.02661131927678421,0.12865842001964756,0.153215971875414,0.30751323511959916,0.09757458783805768,0.3377390700850059,0.7809508606859096,0.411257600211668
0.238,0.05820393737578271,0.03923918963954828,0.08848057407850497,0.4109127447544825,0.027383659599762928,0.12564317829582994,0.15326054221760466,0.3099256803089808,0.09798587851258979,0.3299939994559842,0.7751166539246942,0.40812384513070177
0.239,0.057977667115072275,0.03857638652398799,0.08812726631887254,0.4123599075600814,0.028273755836395433,0.12266378810143029,0.1532581659192525,0.3122820095508377,0.09839099983669057,0.32233675450471866,0.7690060349194638,0.4048995030969038
0.24,0.05774254115256055,0.0379336927238215,0.0877664306129629,0.4136179910410456,0.029284085311818177,0.11972181343529754,0.15320893059996,0.31458070005934113,0.09878966988253646,0.31477132325324686,0.762624978762032,0.4015882068678149
0.241,0.05749880193585338,0.037311222652692475,0.08739823029106177,0.4146855845282801,0.030417053486094126,0.11681877388404617,0.15311296967181057,0.3168202570694431,0.09918160953071735,0.307301533005394,0.7559798100434514,0.3981936702950029
0.242,0.057246701149582024,0.03670907830458384,0.0870228323566181,0.41556150179146417,0.03167498988359248,0.11395614295886383,0.15297046205608036,0.3189992144451387,0.0995665425877137,0.29993104761197836,0.749077189613169,0.39471968422210674
0.243,0.05698649925595104,0.03612734952259844,0.08664040747998067,0.41624478383696645,0.033060144045343354,0.11113534651844921,0.15278163184504148,0.3211161352655154,0.09994419589627097,0.29266336506419116,0.7419241007552142,0.3911701122394698
0.244,0.05671846503300544,0.03556611428287656,0.08625112999857056,0.41673470126529444,0.0345746815105487,0.1083577612803024,0.15254674791124623,0.3231696123936958,0.10031429943917075,0.28550181541670533,0.7345278348259789,0.3875488862962191
0.245,0.056442875111068436,0.03502543899236815,0.08585517792321641,0.41703075616945123,0.036220679833518045,0.10562471342220564,0.15226612346642754,0.32515826903447415,0.10067658643708624,0.2784495590413474,0.7268959763987323,0.3838600021707213
0.246,0.05616001350785167,0.034505378799256775,0.08545273295016896,0.41713268355804406,0.03800012464256379,0.10293747727551872,0.15194011557178616,0.32708075928717417,0.10103079344115136,0.27150958521137847,0.7190363879612317,0.38010751480058663
0.247,0.05587017116273957,0.03400597791501307,0.08504398047815767,0.41704045229001047,0.03991490574731023,0.10029727411147661,0.1515691246010534,0.3289357687002267,0.1013766604208806,0.2646847110157322,0.7109571942134442,0.3762955334733838
0.248,0.05557364547077645,0.0335272699470184,0.08462910962980189,0.4167542655111992,0.04196681330107841,0.09770527102150553,0.1511535936572878,0.33072201483405606,0.10171393084803457,0.25797758060175097,0.7026667660128663,0.37242821687907746
0.249,0.05527073981695623,0.033069278240770925,0.0842083132765639,0.4162745605867058,0.04415753402491294,0.09516257989208375,0.1506940079440753,0.3324382478383727,0.10204235177712936,0.25139066474415445,0.6941737040144096,0.36850976802513113
0.25,0.054961763111295456,0.03263201623069962,0.08378178806644744,0.41560200852684387,0.04648864749989907,0.0926702564744947,0.1501908940912941,0.3340832510496985,0.10236167392336512,0.2449262607370972,0.6854868220513151,0.3645444290152225
0.251,0.05464702932523388,0.032215487798622544,0.0833497344537247,0.41473751290858857,0.048961622534493154,0.09022929954945895,0.14964481943565472,0.3356558416146676,0.10267165173891113,0.23858649260531667,0.6766151303028706,0.3605364756934335
0.252,0.05432685702979538,0.03181968763892257,0.08291235672993257,0.4136822082980319,0.05157781361353864,0.08784065018649406,0.14905639125613152,0.337154871144643,0.10297204348861465,0.2323733116293612,0.6675678182938535,0.3564902121571035
0.253,0.05400156893588899,0.03144460162949007,0.08246986305566799,0.41243745818239663,0.0543384574358923,0.08550519109764107,0.1484262559648489,0.3385792264069996,0.10326261132608955,0.22628849717905428,0.658354237770027,0.3524099651436291
0.254,0.05367149143713754,0.031090207207447644,0.08202246549270464,0.4110048524228072,0.057244669547473905,0.08322374608511672,0.14775509825444444,0.3399278300582217,0.10354312137133685,0.22033365784841868,0.6489838854935559,0.3483000782986213
0.255,0.05333695415554748,0.03075647374867155,0.08157038003616272,0.40938620424098093,0.06029744107665311,0.08099707958218257,0.14704364020337424,0.3411996414234594,0.10381334379082664,0.2145102328847012,0.639466386001648,0.3441649063350933
0.256,0.05299828949039112,0.03044336295005074,0.08111382664647156,0.4075835467543985,0.0634976355788242,0.07882589628645595,0.14629264034075143,0.3423936573265409,0.10407305288098921,0.2088194939033933,0.629811474370991,0.3400088090955991
0.257,0.05265583217061792,0.030150829213463654,0.08065302928089693,0.4055991290750128,0.06684598599706625,0.07671084088455243,0.14550289267238203,0.3435089129735558,0.10432202715591192,0.2032625468807524,0.6200289790295962,0.3358361455315031
0.258,0.052309918811165965,0.029878820030416215,0.08018821592440177,0.4034354119866977,0.07034309174561218,0.07465249786690002,0.14467522566927343,0.3445444828921207,0.10456004944002245,0.19784033441473195,0.6101288046564882,0.3316512676159608
0.259,0.05196088747344471,0.029627276366297486,0.07971961861954582,0.40109506321684957,0.07398941592300022,0.07265139143133328,0.14381050121976138,0.34549948192745084,0.10478690696630272,0.19255363824464478,0.600120915208371,0.32745851420906175
0.26,0.05160907723045897,0.02939613304331303,0.07924747349523024,0.3985809523178303,0.07778528266151968,0.07070798547395968,0.14290961354609846,0.3463730662952849,0.105002391480506,0.18740308201946282,0.5900153171108694,0.3232622048949823
0.261,0.05125482773690336,0.029185319121203885,0.07877202079411469,0.3958961451749272,0.0817308746196521,0.06882268366566766,0.14197348808619603,0.3471644346906084,0.10520629935161926,0.18238913430398848,0.5798220426502193,0.3190666338116078
0.262,0.05089847880476076,0.028994758275068797,0.078293504898651,0.39304389815887586,0.0858262306241993,0.06699582961259845,0.14100308034109624,0.34787282944985737,0.10539843168852477,0.1775121118116406,0.5695511335996771,0.3148760634931204
0.263,0.05054036998491482,0.028824369169586028,0.07781217435578143,0.39002765194283334,0.09007124346877282,0.06522770709886115,0.1399993746887106,0.34849753776314674,0.1055785944626654,0.17277218285217688,0.559212625112932,0.31069471874569876
0.264,0.05018084015529398,0.028674065828986992,0.07732828190021367,0.3868510250057179,0.09446565787552462,0.06351854040970924,0.1389633831645705,0.3490378929316878,0.10574659863619812,0.1681693709821081,0.5488165299152126,0.3065267805756758
0.265,0.04982022711611819,0.028543758002077972,0.07684208447611067,0.3835178068451968,0.0990090686270675,0.06186849473337604,0.13789614421069799,0.3494932756645911,0.10590226029497675,0.16370355884544344,0.5383728228207776,0.3023763801887826
0.266,0.04945886719279227,0.02843335152156924,0.07635384325687956,0.38003195092473024,0.10370091887553887,0.0602776766396677,0.13679872139408536,0.34986311540812665,0.10604540078535346,0.15937449219196206,0.5278914256037941,0.29824759307807436
0.267,0.04909709484699053,0.02834274865685392,0.07586382366245666,0.37639756737941793,0.10854049863584157,0.05874613463334915,0.13567220209656017,0.3501468916996979,0.1061758468535393,0.15518178406003452,0.5173821922476137,0.2941444332171993
0.268,0.04873524229651924,0.028271848459442705,0.0753722953734566,0.37261891550528226,0.11352694346994394,0.05727385978028893,0.1345176961779105,0.35034413553791116,0.10629343078593151,0.1511249191106816,0.5068548945956606,0.29007084737467564
0.269,0.04837363914446422,0.028220547100175616,0.07487953234144268,0.3687003960562594,0.11865923336904644,0.0558607864043851,0.13333633461423222,0.3504544307593174,0.10639799054862029,0.14720325809924137,0.4963192084251955,0.28603070956399307
0.27,0.048012612018096035,0.028188738197334487,0.0743858127945237,0.364646543372539,0.12393619184026149,0.054506792853219535,0.13212926811350043,0.3504774154116259,0.10648936992403064,0.14341604247060946,0.48578469996346585,0.2820278156435308
0.271,0.04765248421796564,0.028176313134708482,0.07389141923739925,0.36046201736340855,0.1293564852043003,0.053211702330452075,0.1308976657105024,0.35041278311248614,0.10656741864272387,0.1397623990637999,0.4752608128640314,0.2780658780795786
0.272,0.04729357537743215,0.0281831613687203,0.073396638444974,0.3561515953670358,0.13491862211037725,0.0519752837928967,0.129642713343243,0.35026028438261136,0.10663199250827196,0.13624134491127066,0.46475685565941655,0.27414852088496927
0.273,0.046936201132882896,0.028209170723612263,0.07290176144854828,0.35172016390883654,0.1406209532743912,0.05079725291014237,0.1283656124131271,0.3500197279419818,0.1066829535133086,0.1328517921182169,0.45428198970478645,0.27027927474510105
0.274,0.04658067280479437,0.028254227673863735,0.07240708351383347,0.34717271037918485,0.14646167144607336,0.04967727308452013,0.1270675783311413,0.34969098195829235,0.1067201699450874,0.12959255280689963,0.44384521762563467,0.2664615723422408
0.275,0.0462272970897006,0.028318217613032808,0.07191290411001429,0.34251431465025944,0.15243881161051023,0.04861495652916733,0.1257498390522576,0.3492739752376723,0.10674351647915806,0.12646234411080867,0.43345537228106173,0.2626987438881401
0.276,0.04587637576312727,0.028401025108398262,0.07141952686915673,0.3377501406510872,0.15855025142913187,0.04760986540181034,0.12441363360008192,0.3487686983487288,0.10675287426024753,0.12345979320341427,0.4231211062524168,0.2589940128741307
0.277,0.04552820539341186,0.02850253414080699,0.07092725953523471,0.3328854279189057,0.16479371192491266,0.046661512991923546,0.12306021058368327,0.3481752046721853,0.10674813096985204,0.12058344234601973,0.41285088186559227,0.2553504920470206
0.278,0.04518307706631447,0.02862262832933671,0.07043641390195172,0.32792548314412606,0.17116675841619192,0.04576936495870525,0.12169082670835324,0.3474936113693306,0.10672918088063058,0.11783175393899964,0.4026529617534368,0.2517711796183361
0.279,0.04484127612022251,0.028761191140322457,0.06994730573856928,0.3228756717252299,0.17766680170307364,0.04493284061742776,0.12030674528216496,0.3467241002636368,0.10669592489819939,0.11520311556055067,0.3925353999633675,0.24825895571360937
0.28,0.04450308189168405,0.028918106080462806,0.06946025470306502,0.31774140934890255,0.18429109950998168,0.04415131427157547,0.11890923472008692,0.3458669186310853,0.10664827059146462,0.11269584497675623,0.3825060336136617,0.24481657906756601
0.281,0.044168767471009396,0.02909325687366337,0.06897558424214523,0.31252815360973896,0.19103675818746588,0.04342411658825382,0.11749956704750167,0.3449223798961528,0.1065861322128596,0.11030819510686685,0.3725724751007119,0.2414466839702194
0.282,0.043838599467617125,0.029286527621288198,0.06849362147784063,0.30724139568302056,0.19790073467588037,0.04275053601431508,0.11607901640494628,0.3438908642318056,0.10650943071013394,0.10803835892786774,0.36274210485813546,0.23815177746790692
0.283,0.043512837784898756,0.029497802945535147,0.06801469708072594,0.30188665206329207,0.20487983873320142,0.04212982023060663,0.11464885755612358,0.34277281906281176,0.1064180937312733,0.10588447430298467,0.3530220646675839,0.23493423682248865
0.284,0.043191735404466816,0.02972696811554739,0.06753914513003861,0.29646945638102357,0.21197073542854275,0.041561177641689394,0.11321036440155587,0.34156875947237764,0.10631205562411454,0.1038446287195825,0.34341925151979413,0.23179630723094202
0.285,0.042875538179648016,0.029973909155868273,0.06706730296105298,0.2909953513094412,0.2191699479024633,0.04104377889829429,0.11176480850076148,0.34027926851264556,0.10619125743207891,0.10191686392292387,0.3339403120234343,0.2287400998067511
0.286,0.04256448463816332,0.030238512936809247,0.06659951100034431,0.2854698805735125,0.22647386039452597,0.04057675844970212,0.11031345760619374,0.33890499741983016,0.10605564688741718,0.1000991804331862,0.3245916373579864,0.22576758982352382
0.287,0.04225880579392572,0.030520667246218505,0.06613611258948428,0.2798985810730787,0.2338787215378713,0.04015921612309186,0.10885757421256645,0.33744666573532217,0.10590517840332672,0.09838954193403592,0.3153793587659294,0.2228806152204435
0.288,0.04195872496788421,0.03082026084208215,0.0656774537976779,0.27428697513197625,0.2413806479199218,0.039790218726888794,0.10739841412512652,0.33590506133413317,0.10573981306619569,0.096785879522203,0.3063093435783705,0.22008087536843282
0.289,0.04166445761778097,0.03113718348533647,0.06522388322378767,0.2686405628847518,0.24897562790764838,0.039468801675003336,0.10593722505044498,0.33428104036229755,0.10555951862923071,0.09528609580879757,0.2973871917673044,0.21736993009514324
0.29,0.041376211176728996,0.03147132595218785,0.06477575178795228,0.2629648148122792,0.2566595257350108,0.039193970628904555,0.10447524521289905,0.332575527084563,0.10536426950836526,0.09388806886466815,0.28861823301673245,0.21474919896647504
0.291,0.04109418490048273,0.03182258002531891,0.06433341251294585,0.2572651644371113,0.26442808584964134,0.03896470315441108,0.10301370199996805,0.3307895136433107,0.10515404678133841,0.09258965600370586,0.2800075243039351,0.21221996082164216
0.292,0.04081856972323167,0.032190838463349,0.063897220295328,0.2515470011890285,0.2722769375150343,0.0387799503902869,0.10155381063911743,0.3289240597290172,0.10492883819049856,0.09138869739959639,0.2715598479812894,0.209783353558485
0.293,0.040549548121762966,0.032575994948094995,0.06346753166640902,0.24581566345062297,0.2802015996637547,0.03863863872578489,0.10009677290906713,0.3269802921618217,0.10468863814978659,0.09028301953328771,0.26327971034824804,0.20744037416514882
0.294,0.04028729398775948,0.032977944009311144,0.06304470454301096,0.24007643179252372,0.2881974859964026,0.03853967148448848,0.09864377588797166,0.32495940438299054,0.10443344775615551,0.08927043847003188,0.2551713407022571,0.2051918789938192
0.295,0.04003197250800748,0.033396580926621185,0.06262909796811297,0.2343345224073567,0.29625991032013316,0.03848193061190229,0.09719599074101327,0.3228626558544669,0.10416327480558647,0.08834876296641507,0.2472386908567803,0.20303858427177127
0.296,0.03978374005224053,0.03383180160847013,0.062221071841329814,0.22859508075131152,0.3043840921197511,0.03846427836433586,0.09575457154963588,0.32069137136375503,0.10387813381378815,0.08751579740894756,0.23948543511377285,0.20098106684462008
0.297,0.03954274406834079,0.034283502447864836,0.06182098663924779,0.22286317540165324,0.3125651623533858,0.03848555899665098,0.0943206541844692,0.31844694023086517,0.10357804604171018,0.08676934458673907,0.2319149706774121,0.19901976514619818
0.298,0.03930912298472521,0.03475158015476774,0.0614292031255756,0.21714379213789917,0.3207981694638735,0.038544600446549365,0.0928953552236907,0.31613081541327653,0.10326303952606668,0.08610720830153813,0.22453041849534652,0.19715498038920637
0.299,0.03908300611984744,0.03523593156508821,0.06104608205100641,0.21144182825369817,0.32907808559594753,0.038640216013300435,0.09147977091839152,0.3137445125046729,0.10293314911506651,0.08552719581887161,0.2173346245133274,0.19538687797022733
0.3,0.03886451359891647,0.035736453426337814,0.06067198384274608,0.205762087105664,0.3373998130082954,0.038771206028766526,0.0900749762062899,0.31128960862317945,0.1025884165094992,0.08502712016451384,0.21033016132893842,0.19371548908232988
0.301,0.03865375627803111,0.03625304216017242,0.060307268283649275,0.2001092729047715,0.34575819066848645,0.03893635951893861,0.08868202377502436,0.3087677411856187,0.10222889030931666,0.08460480227070624,0.2035193302302578,0.19214071252801168
0.302,0.03845083567605418,0.0367855936021214,0.059952294181056034,0.19448798575514714,0.35414800101757415,0.03913445585396985,0.08730194317608565,0.30618060656525947,0.10185462606591585,0.0842580729766174,0.19690416360541033,0.1906623167249404
0.303,0.03825584391452125,0.03733400271879841,0.05960741902539563,0.18890271694445507,0.3625639768899635,0.0393642663849601,0.08593573999032515,0.30352995863187554,0.10146568634033423,0.08398477488731286,0.19048642770926846,0.18927994189661781
0.304,0.03806886366601389,0.037898163302947104,0.059272998638801616,0.18335784448931364,0.3710008085729017,0.03962455606552889,0.08458439504569784,0.3008176071744392,0.10106214076761591,0.0837827640955096,0.1842676257736871,0.18799310243988482
0.305,0.0378899681113959,0.038477967646494166,0.058949386814006424,0.17785762893856336,0.37945315098878846,0.03991408505630804,0.08324886368773386,0.29804541620860314,0.10064406612758187,0.08364991177021464,0.17824900144785819,0.1868011894607788
0.306,0.03771922090635581,0.03907330619191249,0.05863693494391109,0.17240620943656157,0.38791563098247056,0.040231610310465696,0.08193007510292734,0.29521530217312936,0.1002115464222807,0.08358410561630492,0.17243154255527304,0.18570347347021468
0.307,0.03755667615770962,0.039684067162096236,0.058335991642148706,0.16700760004804127,0.39638285469477563,0.04057588713836905,0.0806289316950686,0.2923292320211893,0.09976467296011954,0.0835832512091373,0.16681598515389212,0.18469910723108146
0.308,0.03740237840987553,0.040310136169138096,0.058046902354968156,0.16166568634551332,0.4048494150028285,0.04094567074955871,0.07934630851430784,0.2893892212139585,0.09930354444676848,0.08364527320820335,0.16140281788613445,0.18378712874859693
0.309,0.03725636264190283,0.04095139580234062,0.057770008964738336,0.1563842222595815,0.4133098990069806,0.04133971777026387,0.07808305273860733,0.28639733162470143,0.09882826708259908,0.08376811645380093,0.15619228660547546,0.18296646439625303
0.31,0.03711865427546653,0.04160772519597942,0.057505649385361964,0.15116682719186764,0.42175889554346346,0.041756787734663424,0.07683998320714713,0.283355669361946,0.09833895466638914,0.0839497469507691,0.15118439926656788,0.18223593216993836
0.311,0.036989269194111864,0.04227899957733061,0.05725415715000023,0.14601698338971555,0.43019100270126287,0.04219564454822549,0.07561789000511292,0.2802663825203556,0.09783572870493791,0.0841881527432637,0.1463789310659371,0.1815942450629071
0.312,0.03686821377401421,0.04296508979566359,0.0570158609914585,0.1409380335812671,0.43860083532095495,0.04265505792140223,0.07441753409914963,0.27713165886762553,0.09731871852802318,0.08448134468467591,0.14177542982008384,0.1810400145541998
0.313,0.03675548492647204,0.043665861832918484,0.0567910844156236,0.1359331788689952,0.4469830324528775,0.043133804772062995,0.07323964702258301,0.273953723475486,0.0967880614081168,0.08482735710682238,0.13737322156768647,0.18057175420286903
0.314,0.03665107015228969,0.04438117629693406,0.05658014526844633,0.13100547687935798,0.45533226475175437,0.04363067059498764,0.07208493060931816,0.27073483630235967,0.09624390268406396,0.08522424839248001,0.13317141638216842,0.18018788334008448
0.315,0.03655494760818522,0.045110887898128726,0.05638335529698989,0.12615784016584164,0.4636432417851509,0.044144450796880126,0.07095405677511092,0.2674772897348329,0.09568639588798608,0.08567010145545796,0.12916891438073277,0.17988673085096357
0.316,0.03646708618521555,0.0458548449107604,0.05620101970523148,0.12139303486233043,0.4719107192335104,0.044673951995431456,0.0698476673447153,0.2641834060943479,0.0951157028745519,0.08616302413231428,0.12536441191565448,0.17966653903762808
0.317,0.0363874455992798,0.04661288862003984,0.056033436705215024,0.11671367958330477,0.4801295059605361,0.045217993280974166,0.06876637392326532,0.2608555351150901,0.09453199395185244,0.08670114948979005,0.12175640793332995,0.17952546755490317
0.318,0.03631597649352569,0.047384852756570825,0.055880897064231556,0.11212224456707807,0.4882944709341393,0.045775407439464635,0.06771075781002794,0.2574960513985359,0.09393544801296616,0.08728263605197596,0.11834321048646784,0.17946159741010373
0.319,0.03625262055253421,0.048170562919899046,0.05574368364854273,0.10762105105785102,0.49640054998028815,0.04634504213550274,0.0666813699526336,0.25410735184993666,0.0933262526672561,0.08790566795120432,0.11512294338453569,0.1794729350182573
0.32,0.03619731062803017,0.048969835993248494,0.055622070964202214,0.10321227092203464,0.5044427523545728,0.046925761054210036,0.06567873093983291,0.2506918531020976,0.09270460437032335,0.08856845500640512,0.11209355296763673,0.17955741630414557
0.321,0.03614997087590648,0.049782479551795225,0.055516324695391916,0.09889792649393588,0.5124161671191241,0.04751644500077156,0.06470333103082819,0.24725198893201203,0.09207070855159226,0.08926923273250789,0.10925281498884128,0.17971291084242835
0.322,0.03611051690421672,0.050608291267072565,0.05542670124083045,0.09467989064571004,0.5203159693152055,0.04811599295656333,0.06375563021931549,0.2437902076763355,0.09142477973853945,0.09000626228425089,0.10659834159013887,0.17993722602698767
0.323,0.0360788559318707,0.05144705831024793,0.05535344724860992,0.09055988707603913,0.5281374259240627,0.048723323090875174,0.06283605833031265,0.24030896965205006,0.09076704167674107,0.09077783033763397,0.1041275883572161,0.1802281112610137
0.324,0.03605488695763993,0.05229855675705639,0.055296799149986454,0.08653949081184588,0.535875901610347,0.049337373727278276,0.061945015147834674,0.23681074458893403,0.09009772744507699,0.09158224891227594,0.10183786143855585,0.1805832621596152
0.325,0.03603850093919685,0.053162550997269284,0.05525698269245651,0.0826201289168837,0.5435268642433532,0.04995710426379322,0.06108287057136423,0.23329800908039963,0.08941707956556089,0.09241785513797934,0.09972632471443159,0.18100032475728609
0.326,0.03602958098177376,0.0540387931515308,0.05523421247248543,0.07880308140085651,0.5510858901915605,0.05058149604603264,0.06024996479894536,0.22977324405897595,0.08872535010750714,0.09328301096896746,0.0977900070016828,0.18147689971287348
0.327,0.0360280025362288,0.054927022498478056,0.05522869146805808,0.07508948232234072,0.5585486693856663,0.05120955319247428,0.05944660853467527,0.22623893230231792,0.08802280078584024,0.0941761028492906,0.0960258092804749,0.18201054650504847
0.328,0.03603363360615817,0.05582696491493762,0.055240610571303715,0.07148032107859215,0.5659110101447993,0.05184030337123239,0.058673083218178185,0.2226975559753095,0.08730970305361616,0.09509554133326202,0.09443051192963255,0.18259878761152995
0.329,0.03604633496387111,0.05673833233206106,0.05527014812141842,0.06797644387510665,0.5731688437602367,0.05247279852765852,0.057929641273740486,0.2191515942132023,0.08658633818888802,0.09603976066493317,0.093000781957693,0.18323911266564125
0.33,0.036065960374850776,0.05766082221018181,0.05531746943837067,0.0645785553675502,0.5803182288307567,0.053106115562391934,0.05721650637664859,0.21560352075040654,0.0858529973761954,0.09700721832111592,0.09173318021747623,0.18392898258418358
0.331,0.03609235683045411,0.05859411703521595,0.055382726358080545,0.061287220468698445,0.5873553553435944,0.053739356959511736,0.05653387373431066,0.21205580159907406,0.0851099817828864,0.09799639452257808,0.0906241685929645,0.18466583366113476
0.332,0.03612536478837521,0.059537883839426646,0.055466056769951394,0.05810286631276813,0.5942765484947062,0.05437165136462632,0.055881910379825706,0.20851089278113513,0.08435760263045364,0.09900579171826755,0.08967011714817362,0.18544708162226964
0.333,0.036164818420490165,0.06049177374931885,0.05556758415783997,0.055025784369674084,0.601078272241588,0.05500215411284154,0.055260755475634235,0.20497123811716533,0.08359618126096863,0.1000339340474883,0.08886731122875434,0.1862701256363396
0.334,0.036210545867549404,0.06145542156344426,0.055687417145572064,0.052056132701485285,0.6077571325814698,0.05563004770672178,0.05467052062488212,0.2014392670748321,0.08282604919854045,0.10107936678503811,0.0882119585075678,0.1871323522788178
0.335,0.036262369500173426,0.06242844536279819,0.05582564904823588,0.04919393835356863,0.6143098805478832,0.05625454224457062,0.05411129018829122,0.19791739267925593,0.08204754820568992,0.10214065577431342,0.0877001959660513,0.18803113944432326
0.336,0.03632010618565002,0.0634104461564769,0.055982357430471606,0.04643909987289301,0.6207334149190953,0.0568748757994638,0.05358312160440474,0.19440800948705325,0.08126103033436824,0.10321638685330876,0.08732809680331104,0.18896386020357317
0.337,0.03638356755989573,0.06440100756512546,0.056157603673058394,0.043791389946356736,0.6270247846330219,0.05749031474970892,0.05308604571132214,0.19091349162555485,0.08046685797129094,0.10430516527815772,0.08709167726525514,0.18992788660034018
0.338,0.03645256030404527,0.06539969554454757,0.05635143254905985,0.041250458152224216,0.6331811909045533,0.0581001540615098,0.052620067068410006,0.18743619089819594,0.0796654038771545,0.10540561514873945,0.0869869033860641,0.19092059338343206
0.339,0.03652688642507935,0.06640605815164102,0.0565638718107494,0.03881583381815618,0.6391999890430001,0.0587037175246719,0.05218516427672009,0.183978434956832,0.07885705121911134,0.10651637884042126,0.0870096976346285,0.19193936166833198
0.34,0.036606343539989275,0.06741962535468465,0.05679493178860335,0.03648692897966827,0.6450786899692559,0.05930035794218787,0.0517812902972804,0.18054252554133848,0.07804219359577345,0.10763611644585899,0.08715594545857208,0.19298158252290093
0.341,0.03669072516294441,0.06843990888972414,0.05704460500367585,0.03426304143314736,0.6508149614344354,0.059889457274523564,0.05140837276662497,0.17713073678648714,0.07722123505390796,0.10876350523044225,0.08742150171858555,0.19404466047131008
0.342,0.03677982099492896,0.06946640216460695,0.0573128657947763,0.03214335787777553,0.6564066289436931,0.060470426739539195,0.051066314309294196,0.17374531359585088,0.07639459009583958,0.10989723910480653,0.08780219700587266,0.19512601691036346
0.343,0.036873417215348946,0.07049858021200484,0.05759966996196805,0.030126957140799073,0.6618516763910351,0.06104270686903609,0.05075499284729754,0.17038847008224983,0.07556268367672389,0.11103602811769767,0.08829384383569927,0.1962230934326411
0.344,0.03697129677495068,0.07153589969253361,0.05790495442798386,0.02821281348064388,0.6671482464119831,0.06160576752319262,0.05047426190667699,0.1670623880743395,0.0747259511907777,0.11217859797235503,0.08889224271028516,0.19733335505145222
0.345,0.037073239689639485,0.07257779894899517,0.058228636919233856,0.02639979996242331,0.6722946404614454,0.06215910786421994,0.05022395092174438,0.16376921568902555,0.07388483844583207,0.11332368956955277,0.08959318804431317,0.19845429332338713
0.346,0.03717902333455319,0.07362369811252237,0.05857061566796697,0.02468669190040898,0.6772893186236022,0.06270225629076384,0.050003865537486904,0.1605110659697579,0.07303980162559741,0.1144700585802377,0.0903924739464816,0.19958342936505086
0.347,0.03728842273807728,0.07467299926139397,0.05893076913703301,0.02307217036223899,0.6821308991599733,0.06323477033456638,0.04981378791103254,0.15729001559104158,0.07219130723931386,0.11561647505061871,0.09128589985056552,0.20071831676157606
0.348,0.03740121087530778,0.07572508663307742,0.0593089557685278,0.02155482572960383,0.6868181578007008,0.06375623652085297,0.04965347701299075,0.15410810362951516,0.07133983205849251,0.11676172304236235,0.09226927598988527,0.20185654436527847
0.349,0.03751715896070425,0.07677932689007821,0.059705013757614375,0.020133161310343907,0.691350026782937,0.0642662701938891,0.04952266892966667,0.1509673304019967,0.07048586304059563,0.1179046003102976,0.09333842870960135,0.20299573898370493
0.35,0.037636036739585196,0.07783506944000992,0.060118760852691314,0.018805596996781155,0.6957255936390024,0.06476451530916996,0.04942107716711009,0.1478696563705514,0.06962989723959025,0.11904391801981008,0.09448920561186244,0.20413356795706997
0.351,0.03775761277816849,0.07889164681028075,0.060549994183177164,0.017570472965346143,0.6999440997357846,0.06525064419365788,0.04934839295802399,0.1448170011144105,0.06877244170338767,0.12017850050594305,0.0957174805294095,0.20526774162594516
0.352,0.03788165475185133,0.07994837507765655,0.060998490116092645,0.016426053412424094,0.7040049385660918,0.0657243572755122,0.04930428557238491,0.14181124236827136,0.06791401335819054,0.12130718507594196,0.09701915832379952,0.2063960156908699
0.353,0.03800792973142719,0.08100455435292091,0.061464004142606166,0.01537053032170153,0.7079076537919281,0.06618538278462845,0.04928840263262761,0.13885421512611862,0.06705513887977133,0.12242882185690232,0.09839017950495112,0.20751619346615552
0.354,0.0381362044668495,0.08205946932074101,0.06194627079564993,0.014402027258133462,0.7116519370388256,0.06663347642524005,0.04930037043409488,0.1359477108094171,0.06619635455165553,0.1235422736899113,0.09982652466923189,0.2086261280304032
0.355,0.03826624566814355,0.08311238983459868,0.06244500359971905,0.013518603183908465,0.7152376254390782,0.06706842102166848,0.04933979427154364,0.13309347649834277,0.06533820611012743,0.12464641607185253,0.10132421875379641,0.20972372427650912
0.356,0.03839782028312437,0.08416257156664568,0.06295989505390247,0.012718256291698775,0.7186646989209747,0.06749002613838487,0.049406258772493515,0.13029321422463203,0.06448124857594688,0.12574013714579946,0.10287933510516205,0.21080694086384089
0.357,0.0385306957715221,0.08520925671204546,0.06349061664921582,0.011998927850509033,0.7219332772406877,0.06789812767543728,0.04949932823832829,0.12754858032484345,0.0636260460726442,0.12682233774062243,0.10448799936046942,0.21187379207527404
0.358,0.03866464037541683,0.0862516747472939,0.06403681892110956,0.011358506059495828,0.7250436167537283,0.06829258744044872,0.049618546994159456,0.12486118485297802,0.06277317163131109,0.1278919314603475,0.10614639314045042,0.21292234958176098
0.359,0.038799423385802084,0.08728904324187146,0.06459813153800494,0.010794829905127383,0.7279961069236189,0.06867329269828296,0.04976343974856155,0.12223259105162683,0.06192320698198304,0.12894784482365812,0.10785075755377721,0.21395074411694856
0.36,0.038934815405364843,0.08832056872240619,0.06517416342662222,0.01030569301711126,0.7307912665670829,0.0690401556995805,0.049933511964252025,0.11966431488073538,0.061076742331828214,0.12998901745386543,0.10959739651317446,0.21495716706419707
0.361,0.0390705886074341,0.0893454475883545,0.06576450293469084,0.00988884751856305,0.7334297398381958,0.06939311318935708,0.0501282502407936,0.1171578246029732,0.060234376130474936,0.13101440231955236,0.11138267986432512,0.21593987195801578
0.362,0.039206516991151234,0.09036286707815099,0.06636871803172373,0.009542007865896991,0.7359122919576058,0.0697321258968543,0.05034712271031223,0.1147145404244046,0.05939671482296877,0.13202296602594155,0.11320304632889994,0.216897175901604
0.363,0.03934237663275844,0.09137200628453697,0.06698635654839206,0.009262854674033615,0.7382398046967464,0.07005717800784222,0.05058957944701906,0.11233583418890775,0.05856437259078674,0.13301368915675904,0.1150550062632772,0.21782746090180072
0.364,0.039477945932962964,0.09237203721775604,0.06761694645490168,0.009049038522522186,0.7404132716301512,0.07036827662044678,0.050855052891290685,0.11002302912458951,0.05773797108137334,0.13398556666627987,0.11693514423455119,0.21872917512239684
0.365,0.03961300586022561,0.09336212591504461,0.06825999617876378,0.008898183738303167,0.7424337931714821,0.07066545118564391,0.05114295828885444,0.1077773996403746,0.05691813912668429,0.1349376083210864,0.11884012141533196,0.21960083405633515
0.366,0.03974734019001347,0.09434143359466016,0.0689149949620769,0.008807892150907576,0.744302571410767,0.07094875293350851,0.05145269414558073,0.1056001711709501,0.05610551245115211,0.1358688391911671,0.12076667779894056,0.22044102161701037
0.367,0.039880735739942434,0.09530911785252166,0.06958141325832015,0.008775746815969819,0.7460209047719216,0.07121825428635528,0.051783642698293796,0.10349252006861093,0.055300733369607336,0.13677830018980103,0.12271163423652869,0.22124839114875758
0.368,0.040012982600960936,0.09626433389930943,0.07025870316850115,0.008799315703116416,0.7475901825112858,0.07147404826006108,0.052135170401895775,0.1014555735405158,0.054504450475728765,0.13766504866150034,0.12467189429811136,0.22202166635661025
0.369,0.04014387436472352,0.09720623583567944,0.07094629891628661,0.008876155344369998,0.7490118790797466,0.07171624785475395,0.05250662843308801,0.0994904096301731,0.05371731832161495,0.13852815901710056,0.12664444595992422,0.22275964215560276
0.37,0.04027320834733216,0.0981339779629876,0.07164361736172842,0.00900381443948684,0.7502875483726622,0.07194498543623243,0.05289735321081727,0.09759805724178038,0.05293999708907683,0.1393667234148032,0.1286263631213357,0.223461185440009
0.371,0.04040078580961,0.09904671612662462,0.0723500585531732,0.009179837414717765,0.7514188178931525,0.07216041210935618,0.05330666693355539,0.09577949620596868,0.05217315225314832,0.14017985248571357,0.13061480695523695,0.2241252357729957
0.372,0.04052641217403754,0.09994360908886549,0.07306500631684584,0.00940176793171866,0.7524073828552484,0.07236269708476137,0.053733878133309244,0.09403565738530208,0.05141745423826582,0.1409666761021688,0.13260702709620675,0.22475080599730918
0.373,0.04064989723838049,0.10082381992783758,0.07378782888370868,0.00966715234339256,0.7532550002538966,0.0725520270401382,0.05417828224632612,0.09236742281778049,0.050673578067342656,0.14172634418685684,0.1346003626708393,0.22533698276750755
0.374,0.04077105538598282,0.10168651745909739,0.07451787955293242,0.0099735430936311,0.7539634829286004,0.07272860547728974,0.054639162200282275,0.09077562589646303,0.04994220300393488,0.14245802756053902,0.13659224317460664,0.22588292700421156
0.375,0.04088970579268239,0.10253087767606148,0.07525449739124883,0.01031850205800019,0.754534693646562,0.07289265207622717,0.055115789017824636,0.08926105158346763,0.049224012187567286,0.14316091882591933,0.13858018919937434,0.22638787427057244
0.376,0.04100567263016608,0.10335608520542308,0.07599700796726104,0.010699603822579305,0.7549705392295903,0.07304440204740155,0.05560742243626364,0.08782443665659712,0.04851969226207647,0.14383423328498998,0.14056181301560125,0.2268511350709736
0.377,0.04111878526559442,0.10416133477339368,0.0767447241195645,0.011114438898325862,0.7552729647470414,0.07318410548306707,0.056113311543295276,0.08646646998696941,0.047829932996830096,0.14447720988686882,0.14253481901296905,0.2272720950719202
0.378,0.04122887845726738,0.10494583267852144,0.07749694675748381,0.011560616868413004,0.7554439477948215,0.07331202670867357,0.05663269542844693,0.08518779284618358,0.04715542690055162,0.14508911220290766,0.144497004003056,0.22765021524497905
0.379,0.041335792546044615,0.10570879826655945,0.07825296569308976,0.012035769466145926,0.7554854928790141,0.07342844363501316,0.05716480385005045,0.08398899924159867,0.046496868827524636,0.1456692294254127,0.14644625738741032,0.22798503193165984
0.38,0.04143937364217225,0.10644946540284869,0.07901206050313739,0.01253755358121574,0.7553996259218568,0.07353364711192278,0.05770885791727798,0.08287063627838692,0.04585495557591691,0.14621687738603448,0.14838056119445944,0.2282761568300384
0.381,0.04153947380718974,0.10716708393760642,0.07977350141940863,0.013063654192126966,0.7551883889081208,0.07362794028441615,0.058264070786863256,0.08183320454701555,0.0452303854780724,0.1467313995893719,0.15029798998878088,0.22852327690267107
0.382,0.04163595123050514,0.10786092115948152,0.08053655024593051,0.013611787222730286,0.7548538346905991,0.07371163795210543,0.05882964837386088,0.08087715853471217,0.044623857982543265,0.14721216825695219,0.15219671065666995,0.22872615420516224
0.383,0.04172867040041053,0.10853026323285238,0.08130046130146223,0.014179702320986,0.7543980219735815,0.07378506593306774,0.059404790075792635,0.08000290705947269,0.04403607322769437,0.14765858537617638,0.15407498207208775,0.22888462563428105
0.384,0.041817502269258726,0.10917441661427388,0.08206448238560535,0.014765185558009352,0.7538230104926732,0.07384856043317316,0.05998868950933155,0.07921081372498373,0.04346773160671572,0.148070083748553,0.15593115464743107,0.22899860259412205
0.385,0.04190232441265539,0.10979270944348536,0.08282785576692218,0.015366062045711662,0.7531308564084314,0.07390246742198428,0.06058053525863404,0.07850119739471509,0.042919533323910096,0.1484461280309807,0.15776366977337625,0.22906807057828277
0.386,0.041983021182514915,0.11038449290435708,0.08358981919132916,0.015980198471295507,0.7523236079304062,0.07394714201625749,0.06117951163442282,0.07787433268336647,0.042392177942088646,0.1487862157637497,0.15957105915192965,0.2290930886655266
0.387,0.0420594838537309,0.11094914255102767,0.084349606909076,0.01660550554704805,0.7514033011874225,0.07398294787185833,0.06178479944300515,0.07733045046364745,0.04188636392083533,0.14908987837853416,0.16135194402640854,0.22907378892584745
0.388,0.04213161076424574,0.11148605959456478,0.08510645071864906,0.01723994037399869,0.7503719563589962,0.07401025658496467,0.06239557676458445,0.07686973838631216,0.04140278814543328,0.1493566821797507,0.16310503431184806,0.22901037573356708
0.389,0.04219930744819569,0.1119946721453885,0.08585958102595746,0.017881508718185224,0.7492315740813442,0.07402944710312566,0.0630110197402858,0.07649234141126575,0.04094214544617155,0.1495862292925896,0.16482912762899224,0.22890312498386728
0.39,0.042262486761788745,0.11247443640687427,0.08660822791732611,0.01852826719843982,0.7479841321397112,0.0740409051468511,0.06363030336739135,0.07619836234753392,0.0405051281077747,0.14977815857131682,0.16652310824498306,0.22875238320892582
0.391,0.042321069001604796,0.11292483781550533,0.08735162224480861,0.019178325384725737,0.7466315824569255,0.07404502264216391,0.06425260230220647,0.07598786239982502,0.04009242536872952,0.14993214646171923,0.16818594592378483,0.22855856658979268
0.392,0.042374982014970065,0.11334539212324897,0.08808899672257743,0.019829847806175128,0.7451758483861183,0.07404219716460152,0.06487709166995426,0.07586086171952364,0.03970472291039218,0.15004790781223887,0.16981669468935282,0.2283221598597819
0.393,0.042424161302121934,0.1137356464180572,0.08881958703312477,0.02048105586813759,0.7436188223140028,0.07403283139497963,0.06550294788098647,0.07581733995799422,0.039342702335729576,0.1501251966290625,0.17141449150459348,0.22804371509498292
0.394,0.042468550109808156,0.11409518007872435,0.0895426329419441,0.02113022967757298,0.7419623635794568,0.07401733258722361,0.06612934945263142,0.07585723682011042,0.039007040637626,0.15016380677135877,0.17297855486910416,0.2277238503873266
0.395,0.04250809951597285,0.11442360566082484,0.0902573794192929,0.02177570977628411,0.7402082967103558,0.07399611204851185,0.06675547783594864,0.07598045261599459,0.038698409656802865,0.15016357258341043,0.17450818333862278,0.22736324839569486
0.396,0.04254276850511485,0.11472056971089309,0.09096307776735338,0.02241589878161217,0.7383584099796613,0.07396958463196188,0.06738051824662807,0.07618684880883078,0.038417475529338226,0.15012436946089908,0.1760027539692705,0.2269626547709802
0.397,0.04257252403382742,0.11498575350663347,0.09165898675089246,0.02304926293423654,0.7364144542796429,0.07393816824205078,0.06800366049919769,0.07647624855649873,0.0381648981238976,0.15004611434877432,0.17746172068961438,0.22652287645158944
0.398,0.0425973410859908,0.11521887372144274,0.09234437372947808,0.023674333552893067,0.7343781423114697,0.07390228335289438,0.06862409984357035,0.07684843724466665,0.03794133046873712,0.14992876616801865,0.17888461260387914,0.22604477982664717
0.399,0.042617202716983035,0.1154196830121032,0.09301851578915875,0.02428970839592853,0.7322511480860735,0.07386235253946494,0.06924103780281982,0.07730316300875859,0.03774741816847644,0.14977232616867556,0.1802710322294973,0.22552928876523612
0.4,0.042632100086327715,0.11558797052880192,0.09368070087169,0.024894052929765615,0.7300351067311787,0.07381880002178193,0.06985368301097554,0.07784013724205158,0.037583798810598895,0.14957683820641265,0.18162065367225014,0.22497738251124486
0.401,0.042642032478204965,0.11572356234686317,0.09433022889952847,0.025486101504557202,0.7277316145983383,0.07377205122208125,0.07046125204956404,0.07845903508704258,0.037451101361543435,0.1493423889402052,0.18293322074198887,0.22439009344528513
0.402,0.04264700730944878,0.11582632181959365,0.09496641289496066,0.026064658437406997,0.7253422296630476,0.07372253233502377,0.07106297028166526,0.07915949590714072,0.03734994555219456,0.14906910794895034,0.1842085450118835,0.22376850471706486
0.403,0.04264704012473053,0.11589614985175471,0.09558858009208426,0.026628599003706108,0.7228684722096351,0.0736706699109539,0.07165807268236038,0.07994112373575646,0.03728094125255259,0.1487571677651554,0.18544650382442834,0.22311374775392498
0.404,0.04264215457883062,0.11593298509334565,0.09619607304038567,0.02717687033719098,0.7203118257912834,0.07361689045229601,0.0722458046645174,0.08080348769989311,0.037244687835345125,0.14840678382412667,0.18664703824781187,0.22242699965306995
0.405,0.04263238240594755,0.11593680405356807,0.09678825069891851,0.02770849223937049,0.7176737384535701,0.0735616200229449,0.0728254228991042,0.08174612241546916,0.037241773528340974,0.14801821432733242,0.18781015098678788,0.2217094804667245
0.406,0.04261776337605002,0.11590762113503723,0.09736448951994368,0.028222557899108155,0.7149556242081,0.0735052838704357,0.07339619612921183,0.0827685283515197,0.037272774755156626,0.14759176001875757,0.18893590425261536,0.22096245039036402
0.407,0.0425983452382824,0.11584548858850677,0.09792418452092946,0.02871823452312945,0.7121588647408104,0.07344830606045215,0.07395740597699903,0.08387017216040366,0.03733825546435081,0.1471277638731837,0.1900244175966913,0.22018720686470025
0.408,0.042574183651445004,0.11575049638855438,0.09846675034366595,0.02919476387842869,0.7092848113378059,0.07339110912322992,0.07450834774261812,0.08505048697105978,0.03743876644662941,0.1466266106956814,0.19107586571254262,0.21938508160229306
0.409,0.04254534210161286,0.1156227720307474,0.09899162229906569,0.02965146274759761,0.7063347870102175,0.07333411371132931,0.07504833119408445,0.0863088726423952,0.03757484464001717,0.14608872663216044,0.1920904762104882,0.21855743754947182
0.41,0.042511891806876916,0.11546248025087133,0.0994982573960415,0.030087723298188346,0.7033100887987376,0.07327773826850655,0.07557668134687547,0.08764469597388118,0.037747012422884745,0.14551457859166508,0.1930685273692175,0.21770566579418224
0.411,0.04247391160939642,0.11526982266669207,0.09998613535259457,0.030503013367414254,0.7002119902383145,0.07322239870939659,0.07609273923203835,0.0890572908706688,0.0379557768947781,0.1449046735816847,0.19401034586810298,0.21683118243009483
0.412,0.04243148785489762,0.11504503734262855,0.10045475958702377,0.03089687666347122,0.6970417439633991,0.07316850810981954,0.07659586265161694,0.09054595846060663,0.03820162914506334,0.14425955795845666,0.1949163045041131,0.21593542538711005
0.413,0.04238471425989254,0.11478839827754547,0.10090365818703581,0.031268932884878545,0.6938005844337648,0.07311647640748162,0.07708542692020769,0.09210996716090879,0.03848504350938706,0.14357981659468125,0.1957868198970423,0.21501985123835726
0.414,0.042333691766856564,0.11450021481575921,0.10133238485462483,0.03161887775933176,0.6904897307606997,0.07306671011270754,0.07756082559151449,0.09374855269264151,0.03880647681403464,0.14286607196752063,0.1966223501871077,0.21408593199375303
0.415,0.042278528387643774,0.11418083098131271,0.10174051982448527,0.03194648300348507,0.6871103896128457,0.07301961202879231,0.07802147116874662,0.09546091804163928,0.03916636760828716,0.1421189831698195,0.19742339272913373,0.21313515189027035
0.416,0.04221933903528865,0.11383062473589876,0.10212767075385025,0.03225159620518762,0.6836637581807077,0.07297558098144706,0.07846679579769204,0.09724623336528267,0.03956513538500809,0.141339244847573,0.19819048178789989,0.21216900418897275
0.417,0.04215624534450743,0.11345000716116482,0.10249347358149809,0.032534140629524914,0.680151027179053,0.07293501155681285,0.0788962519412125,0.09910363584536593,0.04000317978986328,0.14052758606675514,0.1989241862393616,0.21118898798860064
0.418,0.04208937548106916,0.11303942156692053,0.10283759335349804,0.03279411495010461,0.6765733838675286,0.07289829384745873,0.07930931303379316,0.10103222948859451,0.04048087981969207,0.13968476911263686,0.19962510728265884,0.2101966050652126
0.419,0.04201886394032042,0.11259934252744391,0.10315972501306102,0.03303159290684252,0.6729320150716995,0.07286581320580342,0.07970547411458305,0.10303108487757738,0.04099859301059225,0.138811588224903,0.20029387616786742,0.20919335674686682
0.42,0.04194485133507617,0.11213027484883335,0.10345959415165688,0.03324672289154972,0.6692281101887079,0.07283795000450147,0.08008425243725856,0.10509923887648527,0.041556654616329784,0.13790886827195012,0.20093115194452119,0.20818074083213622
0.421,0.04186748417308654,0.11163275247080122,0.10373695771840899,0.033439727462529135,0.6654628641633054,0.0728150794032311,0.08044518805481432,0.10723569429655778,0.042155376777628005,0.13697746336784142,0.20153761923597424,0.20716024856093812
0.422,0.04178691462428386,0.11110733730683113,0.10399160468479969,0.0336109027893257,0.6616374804208763,0.07279757112144801,0.08078784437731434,0.1094394195272424,0.04279504768303472,0.1360182554355903,0.202113986044547,0.20613336164604956
0.423,0.04170330027803851,0.1105546180269492,0.10422335666175599,0.03376061802874275,0.657753173744887,0.07278578921652122,0.08111180870060877,0.11170934813913028,0.04347593072204161,0.135032152720583,0.20266098159239448,0.20510154937344463
0.424,0.041616803890733974,0.10997520878764752,0.10443206846655269,0.03388931463314415,0.6538111730868209,0.07278009186689252,0.0814166927039087,0.11404437846482274,0.04419826363144361,0.13402008825807513,0.20317935420277558,0.20406626577919781
0.425,0.04152759312412594,0.10936974791378644,0.10461762863729247,0.03399750559196357,0.6498127242975051,0.0727808311598584,0.0817021329142298,0.11644337316394628,0.044962257635856914,0.1329830182986862,0.20366986922610622,0.20302894691022125
0.426,0.04143584027506419,0.10873889653752068,0.10477995989316778,0.034085774607286415,0.6457590927697581,0.07278835288377294,0.08196779113566345,0.11890515877825597,0.04576809658369413,0.13192192069570832,0.20413330701474833,0.2019910081755663
0.427,0.041341721997365855,0.10808333719957286,0.10491901953925405,0.03415477520429033,0.6416515659834009,0.07280299632449887,0.08221335484138804,0.12142852528269531,0.04661593608000626,0.13083779325792397,0.2045704609499536,0.20095384179437514
0.428,0.041245419016639306,0.10740377241826013,0.10503479981478538,0.034205229777301095,0.6374914559447685,0.07282509406595548,0.08243853752636811,0.12401222563810443,0.04750590261783786,0.12973165207151557,0.20498213552375533,0.19991881434618314
0.429,0.041147115838932095,0.10670092323173049,0.1051273281843579,0.034237928572310804,0.6332801015141475,0.07285497179473695,0.08264307901867841,0.12665497535119605,0.048438092710105206,0.1286045297948021,0.20536914447804197,0.1988872644286641
0.43,0.04104700045408196,0.10597552771873746,0.10519666757159872,0.03425372860674688,0.6290188706157434,0.07289294810868151,0.08282674574744292,0.1293554520472357,0.04941257202407126,0.127457473929584,0.20573230900242057,0.19786050042757208
0.431,0.040945264034601775,0.10522833950314675,0.10524291653506411,0.03425355252755151,0.624709162326114,0.07293933432930118,0.08298933096568126,0.1321122950607642,0.05042937452068484,0.12629154507321141,0.20607245599187174,0.1968397984030415
0.432,0.040842100631022636,0.10446012624703625,0.10526620938604848,0.0342383874085324,0.6203524088377573,0.0729944343178862,0.08313065492639554,0.13492410504938235,0.051488501601054136,0.1251078151558902,0.2063904163647348,0.19582640009602287
0.433,0.04073770686452863,0.10367166813700969,0.10526671624788436,0.0342092834881879,0.6159500772950687,0.07305854429502674,0.08325056501064405,0.1377894436353301,0.05258992126235401,0.12390736566813443,0.2066870234410602,0.19482151105793297
0.434,0.04063228161780469,0.10286375636792132,0.10524464305600091,0.03416735284916393,0.6115036714999237,0.07313195266319852,0.0833489358066221,0.14070683307928544,0.053733567265442504,0.12269128588354855,0.20696311138093684,0.19382629890620662
0.435,0.04052602572500563,0.10203719162809827,0.10520023149806082,0.03411376804058011,0.6070147334838567,0.0732149398319771,0.08342566913913692,0.14367475599045432,0.05491933831649915,0.12146067108228391,0.20721951368200742,0.19284189170788285
0.436,0.040419141661743756,0.10119278258989424,0.10513375889358142,0.03404976064441726,0.6024848449432053,0.07330777804545863,0.08348069404949221,0.14669165507681411,0.05614709726502431,0.1202166207804642,0.20745706173513725,0.1918693764930114
0.437,0.040311833235976535,0.1003313444093028,0.10504553801270738,0.03397661978718231,0.597915628533217,0.07341073121153645,0.08351396672620473,0.14975593293902642,0.0574166703205759,0.11896023697079681,0.20767658343705703,0.19090979789932455
0.438,0.04020430528067326,0.09945369723829932,0.10493591683424454,0.03389569059800554,0.5933087490169786,0.07352405473285319,0.08352547038751396,0.1528659519113431,0.05872784629076324,0.1176926223792321,0.20787890185871857,0.1899641569490213
0.439,0.04009676334896957,0.0985606647534164,0.10480527824334211,0.03380837261439963,0.5886659142652019,0.07364799533929539,0.08351521511689844,0.15602003395268177,0.06008037584298055,0.1164148787422531,0.20806483396798567,0.18903340995812815
0.44,0.039989413412590484,0.09765307270389592,0.10465403966961725,0.033716118136755735,0.5839888761034195,0.07378279092203095,0.08348323765289953,0.15921646059067618,0.06147397079257246,0.11512810510905978,0.20823518940487265,0.18811846757829084
0.441,0.03988246156414721,0.09673174748279204,0.10448265266659572,0.03362043053279531,0.5792794310034878,0.07392867036908103,0.08342960113469719,0.16245347292132872,0.06290830342009462,0.11383339617256714,0.20839076930699477,0.18722019397054815
0.442,0.03977611372392126,0.09579751472418487,0.10429160243335225,0.0335228624929867,0.5745394206164254,0.07408585340254893,0.08335439480487414,0.16572927166639592,0.06438300582046534,0.11253184063293144,0.20853236518239163,0.18633940611017166
0.443,0.03967057535154725,0.09485119792975497,0.1040814072791188,0.0334250142379912,0.5697707321431872,0.07425455041776059,0.08325773367104655,0.16904201729032128,0.06589766928685176,0.11122451959703505,0.20866075782654542,0.18547687322147247
0.444,0.03956605116312549,0.09389361712783538,0.10385261803174145,0.033328531679091666,0.5649752985394026,0.07443496232489835,0.08313975812800457,0.17238983017807158,0.06745184373217958,0.10991250501723838,0.2087767162803151,0.1846333163410002
0.445,0.03946274485401927,0.09292558756812251,0.10360581739092363,0.033235104532490706,0.5601550985491036,0.07462728039384199,0.0830006335421499,0.1757707908750669,0.06904503715140985,0.10859685817261941,0.20888099682586844,0.18380940800717208
0.446,0.03936085882778017,0.09194791845518917,0.10334161922743693,0.03314646438839427,0.5553121565616949,0.07483168610327944,0.0828405498000277,0.17918294039015667,0.0706767151278966,0.10727862819561625,0.20897434201812654,0.1830057720739002
0.447,0.03926059393150685,0.09096141172386403,0.10306066782957433,0.03306438273568261,0.5504485422858957,0.07504835099528163,0.08265972082272668,0.18262428056279748,0.07234630038729278,0.10595885064696163,0.20905747975008543,0.1822229836453307
0.448,0.039162149197921325,0.08996686085958935,0.10276363709810146,0.03299066894313509,0.5455663702343876,0.07527743653663475,0.08245838404789686,0.18609277449564568,0.07405317240259969,0.10463854614144999,0.20913112235102443,0.1814615691285192
0.449,0.03906572159446021,0.08896504976659525,0.10245122969090334,0.0329271681981726,0.5406677990129056,0.07551909398834769,0.08223679988107667,0.1895863470543306,0.07579666705385403,0.1033187190269219,0.20919596571733548,0.18072200640058286
0.45,0.03897150577955331,0.0879567516867367,0.1021241761183888,0.032875759404177,0.5357550304075442,0.07577346428472867,0.08199525111789283,0.19310288543643395,0.07757607634586977,0.10200035611859494,0.20925268847616485,0.18000472508655904
0.451,0.03887969386628899,0.08694272817148148,0.10178323379062439,0.0328383530374603,0.5308303082639837,0.07604067792358693,0.08173404233872397,0.1966402398123205,0.07939064818723693,0.10068442549074841,0.20930195118278072,0.1793101069439611
0.452,0.038790475193521835,0.08592372810938262,0.1014291860171694,0.03281688896502261,0.525895917152557,0.07632085486898786,0.08145349927744983,0.20019622404077467,0.08123958623360679,0.09937187532746657,0.20934439555342652,0.17863848634969237
0.453,0.03870403610453685,0.08490048681115167,0.10106284096059451,0.03281333422439465,0.5209541808132535,0.07661410446798766,0.08115396816595624,0.2037686164626774,0.08312204979809396,0.09806363283405718,0.20938064373621199,0.17799015088478432
0.454,0.0386205597332331,0.08387372515420462,0.10068503054470097,0.032829680766923997,0.5160074603750351,0.07692052538270402,0.08083581505610088,0.20735516077632063,0.08503715383152198,0.09676060321063261,0.20941129762353092,0.17736534201233792
0.455,0.038540225797768266,0.08284414878835582,0.10029660931855815,0.03286794316606673,0.5110581523446817,0.0772402055390797,0.08049942512081178,0.21095356699807694,0.08698396897505115,0.0954636686891964,0.20943693820982337,0.17676425584373293
0.456,0.038463210401539404,0.0818124474040752,0.09989845327757269,0.03293015629214706,0.5061086863623788,0.07757322209363743,0.08014520193586204,0.2145615125121654,0.08896152168762815,0.09417368763546267,0.2094581249986945,0.17618704398808935
0.457,0.038389685841404245,0.08077929406454612,0.09949145864311895,0.03301837295513304,0.5011615227242527,0.077919641419636,0.07977356674383095,0.21817664321310581,0.09096879445047232,0.09289149371647262,0.20947539546313876,0.17563381447976897
0.458,0.03831982042300775,0.079745344602405,0.09907654060254932,0.03313466151687816,0.4962191496753453,0.07827951911401877,0.0793849577016776,0.22179657474407968,0.09300472605061093,0.09161789513478609,0.209489264562436,0.17510463277867303
0.459,0.038253778283319946,0.07871123708194133,0.09865463201185704,0.03328110347424655,0.49128408047990135,0.07865290002660169,0.07897982911332621,0.22541889383394303,0.09506821194527153,0.09035367392978748,0.20950022431879067,0.1745995228383471
0.46,0.03819171922046225,0.0776775913271689,0.09822668206363908,0.033459791014688364,0.4863588502790007,0.07903981831304084,0.07855865064864112,0.22904115973501574,0.09715810470858953,0.08909958534631549,0.20950874345667259,0.174118468237228
0.461,0.03813379853121505,0.0766450085159972,0.09779365492349722,0.03367282454578676,0.48144601274853144,0.07944029751309298,0.0781219065501323,0.2326609057631146,0.09927321456194989,0.08785635727057693,0.20951526710729612,0.17366141336872892
0.462,0.038080166856639446,0.07561407084047335,0.09735652833824147,0.03392231020041202,0.47654813657253814,0.07985435065578052,0.07767009482872722,0.23627564094070252,0.10141230998900437,0.08662468973304745,0.20952021658034953,0.17322826468630448
0.463,0.03803097003638135,0.07458534123275223,0.09691629221949351,0.034210357319214034,0.4716678017485278,0.08028198039318456,0.07720372644990675,0.23988285174329851,0.10357411843619777,0.08540525447785148,0.20952398920455295,0.17281889199963546
0.464,0.03798634897222341,0.07355936315625856,0.09647394720644462,0.034539075912197466,0.4668075957423378,0.0807231791645727,0.07672332451148572,0.24348000394870306,0.10575732709947225,0.08419869459789733,0.20952695823818548,0.1724331298182876
0.465,0.03794643950143982,0.072536660461215,0.09603050321157273,0.034910574101331235,0.46197010951067213,0.08117792939272077,0.07622942341423232,0.24706454458784957,0.10796058379766223,0.08300562423484281,0.20952947285030793,0.17207077873928112
0.466,0.037911372280450335,0.07151773730350075,0.09558697795315572,0.03532695554619692,0.45715793340953886,0.08164620371421236,0.07572256802645509,0.2506339039955235,0.11018249793279236,0.08182662834268872,0.2095318581729922,0.17173160687542496
0.467,0.03788127267922512,0.07050307812556908,0.09514439547821262,0.035790316854863904,0.45237365300687077,0.08212796524541557,0.0752033128435265,0.2541854979586211,0.1124216415373687,0.08066226251368093,0.20953441542468743,0.17141535132157684
0.468,0.03785626068677205,0.0694931476980163,0.0947037846792849,0.03630274498223485,0.4476198448179644,0.0826231678857115,0.07467222114345039,0.257716729959046,0.11467655040835761,0.07951305286493819,0.20953742210449436,0.17112171965621434
0.469,0.03783645082813948,0.0684883912200977,0.09426617780824953,0.03686631461822999,0.4428990719826663,0.08313175665935782,0.07412986413963085,0.2612249935076845,0.1169457253273752,0.07837949598406409,0.20954113225694762,0.17085039147584205
0.47,0.03782195209314675,0.06748923447742208,0.09383260899006804,0.03748308556825555,0.4382138799033472,0.08365366809716096,0.07357682013217022,0.26470767456534317,0.1192276333662762,0.07726205893194024,0.20954577680650557,0.17060101995971014
0.471,0.03781286787721157,0.06649608405488128,0.09340411273919887,0.03815510012859542,0.433566791862233,0.08418883065901629,0.07301367365922273,0.26816215404572974,0.12152070927707632,0.07616117930074132,0.20955156396064456,0.1703732334622205
0.472,0.037809295934414976,0.06550932760285802,0.09298172248121639,0.03888438045959392,0.4289603046358684,0.08473716519815008,0.07244101465000244,0.2715858103950781,0.12382335696496423,0.07507726532520692,0.20955867967999228,0.17016663713010288
0.473,0.03781132834302424,0.0645293341546727,0.09256646908192546,0.03967292595970399,0.42439688412349497,0.08529858546761822,0.07185943758110466,0.27497602224232814,0.12613395104290412,0.07401069604513402,0.20956728821353413,0.16998081454121475
0.474,0.03781905148346308,0.06355645449323268,0.09215937938613801,0.04052271064367745,0.4198789610049693,0.08587299866954731,0.07126954063785106,0.27833017111320185,0.12845083846613917,0.07296182151700015,0.20957753269634005,0.16981532936166124
0.475,0.0378325460287293,0.06259102156471236,0.09176147476806587,0.04143568052833848,0.41540892644290933,0.08646030604729908,0.07067192488228309,0.28164564420100147,0.13077234024457335,0.07193096307254296,0.20958953580683307,0.16966972701787994
0.476,0.03785188694705514,0.06163335093712366,0.09137376969512488,0.042413751029415574,0.4109891278427716,0.08706040352063744,0.07006719342935472,0.2849198371866975,0.1330967532307586,0.07091841362191972,0.20960340048004947,0.16954353638030448
0.477,0.03787714351653726,0.06068374130148587,0.09099727030695022,0.04345880437291331,0.4066218646835653,0.08767318236378159,0.06945595063276043,0.2881501571008435,0.1354223519809117,0.06992443799900654,0.20961921067268785,0.16943627145518766
0.478,0.03790837935133764,0.059742475013218214,0.09063297301146578,0.044572687024538905,0.4023093844308208,0.08829852992598115,0.06883880128163371,0.2913340252200265,0.13774739068591849,0.06894927334636035,0.2096370321753376,0.1693474330811611
0.479,0.037945652438938035,0.058809818671357594,0.09028186309981041,0.04575720714069147,0.3980538785421586,0.08893633039404819,0.06821634980928368,0.29446887999068877,0.14007010516904808,0.06799312953729973,0.2096569134666316,0.16927651062705615
0.48,0.037989015187924594,0.05788602373321215,0.0899449133820195,0.047014132044504955,0.39385747857489345,0.08958646559591363,0.06758919951492622,0.2975521799734109,0.142388714946624,0.06705618963269924,0.2096788866035653,0.16922298368733532
0.481,0.038038514485748014,0.05697132716207385,0.08962308284532298,0.04834518573049794,0.3897222524040733,0.09024881584410945,0.06695795179941028,0.300581406801134,0.14470142534764965,0.06613861037008348,0.2097029681417656,0.1691863237713557
0.482,0.038094191765962446,0.05606595210570964,0.08931731533677789,0.04975204640133192,0.3856502005588034,0.0909232608176679,0.06632320541581038,0.3035540681456073,0.147006429688255,0.06524052268287582,0.209729160079024,0.16916599598242854
0.483,0.038156083084462805,0.05517010860320166,0.08902853827189212,0.05123634404013271,0.38164325268368515,0.0916096804807443,0.06568555573576423,0.306467700687052,0.14930191149662003,0.06436203224773324,0.2097574508149735,0.16916146068231824
0.484,0.03822421920434325,0.054283994317704226,0.08875766137076878,0.052799658021733725,0.3777032641316331,0.09230795603605134,0.0650455940324659,0.3093198730828388,0.1515860467840979,0.06350322005824398,0.20978781611934366,0.16917217513652036
0.485,0.038298625688960114,0.053407795292563606,0.08850557542322343,0.054443514766133315,0.3738320126937249,0.0930179709109173,0.06440390678105302,0.3121081889315096,0.1538570063582017,0.06266414302348824,0.2098202201007552,0.16919759513517119
0.486,0.038379323002867394,0.05254168672825402,0.08827315108448626,0.056169385437355286,0.3700311954720144,0.09373961177366326,0.06376107497713925,0.3148302897293159,0.15611295817310333,0.06184483459022426,0.20985461616785686,0.16923717658453255
0.487,0.038466326620271496,0.05168583377743244,0.08806123770311611,0.05797868369076038,0.36630242590160217,0.09447276957765502,0.06311767347397777,0.3174838578169289,0.1583520697134967,0.06104530538776253,0.209890947974643,0.16929037706389335
0.488,0.038559647140636436,0.050840392355589764,0.08787066218297504,0.05987276347183597,0.36264723092864926,0.09521734063022044,0.06247427033872883,0.32006661931437264,0.16057251040763595,0.06026554389466023,0.2099291503424642,0.16935665734303187
0.489,0.038659290411192336,0.050005509964690865,0.08770222788098361,0.06185291686927534,0.3590670483509598,0.09597322768330983,0.061831426228213165,0.32257634704230337,0.16277245406536914,0.059505517126492075,0.20996915015183043,0.1694354828555359
0.49,0.03876525765600212,0.04918132652741144,0.08755671354249947,0.06392037202519857,0.3555632243273862,0.0967403410425591,0.06118969378447558,0.32501086342767266,0.1649500813366004,0.05876517134385078,0.21001086719816497,0.16952632512362661
