Raw.Pin 1,Raw.Pin 2,Raw.Pin 3,Raw.Pin 4,Raw.Pin 5,Raw.Pin 6,Raw.Pin 7,Raw.Pin 8,Raw.Pin 9,Raw.Pin 10,Raw.Pin 11,Raw.Pin 12,Raw.Pin 13,Raw.Pin 14,Raw.Pin 15,Raw.Pin 16,Raw.Pin 41,Raw.Pin 42,Raw.Pin 43,Raw.Pin 44,Raw.Pin 45,Raw.Pin 46,Raw.Pin 47,Raw.Pin 48,Raw.Pin 49,Raw.Pin 50,Raw.Pin 51,Raw.Pin 52,Raw.Pin 53,Raw.Pin 54,Raw.Pin 55,Raw.Pin 56,Raw.Pin 57,Raw.Pin 58,Raw.Pin 59,Raw.Pin 60,Raw.Pin 61,Raw.Pin 62,Raw.Pin 63,Raw.Pin 64,Voltage.EMG01_r_gastro,Voltage.EMG02_r_soleus,Voltage.EMG03_r_rect_fem,Voltage.EMG04_r_tfl,Voltage.EMG05_r_semimemb,Voltage.EMG06_l_gastro,Voltage.EMG07_l_soleus,Voltage.EMG08_l_rect_fem,Voltage.EMG09_l_tfl,Voltage.EMG10_l_semimemb,Voltage.not_used
-0.0042724609375,-0.00274658203125,0.0048828125,-0.01129150390625,-0.0054931640625,-0.00640869140625,-0.0018310546875,-0.001220703125,0.003662109375,-0.00213623046875,-0.01312255859375,0.00152587890625,-0.00701904296875,-0.00457763671875,-0.003662109375,-0.0115966796875,-0.00274658203125,-0.00030517578125,0.0,-0.00396728515625,-0.0067138671875,-0.00885009765625,-0.00244140625,0.006103515625,0.0018310546875,-0.006103515625,-0.00885009765625,-0.01007080078125,-0.0067138671875,-0.003662109375,-0.0018310546875,-0.00885009765625,-0.003662109375,-0.0030517578125,0.00244140625,-0.00274658203125,-0.0054931640625,-0.00640869140625,-0.00030517578125,-0.001220703125,-0.008198852650821209,-0.18076202273368835,0.023843994364142418,0.04955963045358658,0.03963012620806694,0.032615967094898224,0.037857361137866974,0.03483673185110092,0.03458557277917862,0.03624725341796875,0.05693298205733299
-0.00579833984375,-0.0018310546875,-0.008544921875,-0.0103759765625,-0.00457763671875,-0.00518798828125,-0.00091552734375,-0.00335693359375,-0.0238037109375,-0.0189208984375,-0.03021240234375,-0.013427734375,-0.018310546875,-0.020751953125,-0.023193359375,-0.01800537109375,-0.00335693359375,-0.00396728515625,-0.0189208984375,-0.00518798828125,-0.00885009765625,0.00579833984375,-0.00396728515625,-0.00762939453125,-0.01922607421875,-0.006103515625,-0.00823974609375,-0.01007080078125,-0.00762939453125,-0.00335693359375,-0.009765625,-0.00823974609375,-0.0018310546875,-0.0030517578125,-0.01068115234375,-0.00244140625,-0.01739501953125,-0.0042724609375,-0.00091552734375,0.01708984375,0.0003460693405941129,-0.13025543093681335,0.05924438312649727,0.03750518709421158,0.03901977464556694,0.026359863579273224,0.027481384575366974,0.03392120450735092,0.01886901818215847,0.03624725341796875,0.029161987826228142
0.0,-0.00244140625,-0.00213623046875,-0.0067138671875,-0.0042724609375,-0.00457763671875,-0.00152587890625,-0.00335693359375,-0.02227783203125,-0.0250244140625,-0.0341796875,-0.01495361328125,-0.0164794921875,-0.02349853515625,-0.02716064453125,-0.0115966796875,-0.00762939453125,-0.00091552734375,-0.0042724609375,-0.00885009765625,-0.00518798828125,-0.00152587890625,-0.00274658203125,-0.006103515625,0.00091552734375,-0.0048828125,-0.0030517578125,0.0030517578125,-0.00274658203125,-0.00213623046875,0.0048828125,-0.00152587890625,0.00030517578125,-0.013427734375,-0.00335693359375,-0.0030517578125,-0.020751953125,-0.00030517578125,-0.006103515625,-0.001220703125,0.012095336802303791,-0.07791778445243835,0.07969116419553757,0.01629547029733658,0.03947753831744194,0.043449707329273224,0.024734802544116974,0.03697296231985092,0.05045471340417862,0.03227996826171875,0.023821411654353142
-0.0018310546875,-0.00762939453125,-0.00152587890625,-0.009765625,-0.01495361328125,-0.00396728515625,-0.00244140625,0.0,-0.01861572265625,-0.01739501953125,-0.03173828125,-0.01251220703125,-0.0115966796875,-0.0177001953125,-0.01068115234375,-0.0140380859375,-0.006103515625,-0.0067138671875,-0.00152587890625,-0.00396728515625,-0.0042724609375,-0.01800537109375,-0.0042724609375,-0.0091552734375,-0.0018310546875,-0.00640869140625,0.003662109375,-0.0018310546875,-0.0054931640625,-0.00640869140625,-0.00579833984375,-0.00396728515625,0.00244140625,-0.0006103515625,-0.0054931640625,-0.00823974609375,-0.00701904296875,-0.001220703125,-0.00274658203125,-0.0048828125,0.025980835780501366,-0.047095030546188354,0.05405639484524727,0.006987609900534153,0.015368652530014515,0.031700439751148224,0.021072693169116974,0.011033019982278347,0.03611145168542862,0.03960418701171875,0.027483521029353142
-0.00396728515625,-0.0018310546875,-0.0030517578125,-0.0091552734375,-0.0054931640625,-0.008544921875,-0.0006103515625,-0.00274658203125,0.008544921875,-0.003662109375,-0.020751953125,-0.00457763671875,-0.00244140625,-0.00396728515625,-0.00091552734375,-0.00274658203125,-0.00213623046875,-0.003662109375,-0.0103759765625,-0.0042724609375,-0.00946044921875,-0.0054931640625,-0.00579833984375,-0.00335693359375,0.001220703125,-0.00091552734375,0.003662109375,-0.00579833984375,-0.009765625,0.00274658203125,-0.0018310546875,-0.0018310546875,-0.00579833984375,-0.00396728515625,-0.00274658203125,-0.00152587890625,-0.006103515625,-0.00762939453125,-0.0067138671875,-0.00579833984375,0.025980835780501366,-0.028174133971333504,0.026590576395392418,-0.002167663536965847,0.03169555589556694,-0.011787109076976776,0.023819275200366974,0.03559967130422592,0.02878723107278347,0.02114105224609375,0.023516235873103142
0.0079345703125,-0.0030517578125,-0.00213623046875,-0.0018310546875,-0.0054931640625,-0.003662109375,-0.00640869140625,-0.0006103515625,-0.00152587890625,-0.0048828125,-0.02105712890625,-0.00396728515625,-0.00213623046875,-0.0042724609375,-0.0030517578125,-0.00213623046875,-0.03204345703125,-0.00701904296875,-0.01007080078125,0.00335693359375,-0.006103515625,-0.0042724609375,-0.01556396484375,-0.00335693359375,0.0030517578125,-0.003662109375,-0.00244140625,-0.0048828125,-0.0079345703125,-0.00457763671875,-0.006103515625,-0.00152587890625,-0.00244140625,-0.008544921875,-0.0030517578125,-0.0018310546875,-0.00732421875,-0.0030517578125,-0.0030517578125,-0.00244140625,0.030100708827376366,-0.035803526639938354,0.022165527567267418,0.007292785681784153,0.03078002855181694,0.028038330376148224,0.036484070122241974,0.04429718106985092,0.03855285793542862,0.03380584716796875,0.06959778070449829
-0.00030517578125,-0.0018310546875,0.00152587890625,-0.01312255859375,-0.0042724609375,-0.00579833984375,-0.00244140625,0.0,-0.00457763671875,-0.00457763671875,-0.0213623046875,-0.00244140625,-0.00518798828125,-0.00335693359375,-0.00152587890625,-0.00396728515625,-0.0103759765625,0.00152587890625,-0.00701904296875,-0.006103515625,-0.0006103515625,-0.00946044921875,-0.006103515625,-0.0030517578125,-0.003662109375,-0.00457763671875,-0.0042724609375,-0.0067138671875,-0.01190185546875,-0.006103515625,-0.00579833984375,-0.0115966796875,0.0,-0.008544921875,-0.00579833984375,-0.0018310546875,-0.00762939453125,-0.00335693359375,-0.00396728515625,-0.0067138671875,0.033457640558481216,-0.039313048124313354,0.023843994364142418,0.01644805818796158,0.04024047777056694,0.031090088188648224,0.023971863090991974,0.03071685880422592,0.03214416652917862,0.01473236083984375,0.03251891955733299
-0.0018310546875,-0.00213623046875,-0.00244140625,-0.010986328125,-0.0079345703125,-0.0006103515625,-0.00244140625,-0.0018310546875,-0.001220703125,-0.00091552734375,-0.02105712890625,0.00152587890625,-0.00274658203125,-0.003662109375,0.0018310546875,-0.001220703125,-0.00030517578125,0.00091552734375,-0.008544921875,-0.0048828125,-0.0091552734375,0.00885009765625,-0.00579833984375,-0.003662109375,-0.00152587890625,-0.006103515625,-0.00885009765625,-0.0067138671875,-0.00518798828125,-0.00030517578125,-0.00335693359375,-0.0079345703125,-0.00244140625,-0.00701904296875,0.00274658203125,-0.003662109375,-0.00274658203125,0.0048828125,-0.0006103515625,-0.00274658203125,0.045664671808481216,-0.036261290311813354,0.04139159992337227,0.012175598181784153,0.010485840030014515,0.032005615532398224,0.030075378715991974,0.010880432091653347,0.03214416652917862,0.02800750732421875,0.026720581576228142
-0.001220703125,0.0042724609375,-0.00091552734375,-0.0091552734375,-0.013427734375,-0.0018310546875,-0.001220703125,-0.00091552734375,-0.0054931640625,-0.00274658203125,-0.02166748046875,0.00091552734375,-0.00396728515625,-0.0042724609375,-0.0146484375,-0.0030517578125,-0.00152587890625,-0.00579833984375,-0.0091552734375,-0.00030517578125,-0.01007080078125,-0.003662109375,-0.00518798828125,-0.0067138671875,-0.0006103515625,-0.0030517578125,-0.00732421875,-0.0048828125,-0.00701904296875,0.00457763671875,0.003662109375,-0.00213623046875,-0.0201416015625,-0.00823974609375,-0.0042724609375,-0.00274658203125,-0.00640869140625,-0.00885009765625,-0.003662109375,-0.00457763671875,0.047495726495981216,0.010583191178739071,0.03193115070462227,0.01843170076608658,0.04130859300494194,0.030021972954273224,0.021072693169116974,0.03193756192922592,0.03809509426355362,0.02541351318359375,0.028246460482478142
-0.00152587890625,0.00152587890625,0.0006103515625,-0.010986328125,-0.00274658203125,-0.0030517578125,-0.0030517578125,0.00091552734375,-0.00457763671875,-0.00244140625,-0.009765625,-0.0030517578125,-0.00396728515625,-0.00213623046875,-0.00274658203125,-0.0006103515625,-0.00518798828125,-0.0103759765625,-0.0054931640625,-0.00335693359375,-0.00732421875,-0.00732421875,-0.00091552734375,-0.0054931640625,-0.00335693359375,0.0,-0.00457763671875,-0.00335693359375,-0.00518798828125,-0.00946044921875,-0.001220703125,-0.01068115234375,-0.00335693359375,-0.00244140625,-0.00274658203125,-0.00091552734375,-0.00579833984375,-0.00030517578125,0.0018310546875,0.001220703125,0.007365112192928791,0.044457703828811646,0.03498290851712227,0.02423004060983658,0.03551025316119194,0.013695068657398224,0.044418640434741974,0.03651519864797592,0.03519592434167862,0.02175140380859375,0.030382690951228142
-0.0048828125,-0.001220703125,-0.003662109375,-0.0103759765625,-0.01007080078125,-0.0030517578125,-0.0042724609375,0.0,0.00396728515625,0.00335693359375,-0.0103759765625,0.00152587890625,-0.00152587890625,-0.0048828125,-0.00335693359375,0.00030517578125,-0.0048828125,-0.003662109375,-0.0164794921875,-0.0079345703125,-0.0067138671875,-0.00518798828125,-0.00335693359375,-0.00732421875,-0.01495361328125,-0.0042724609375,-0.00732421875,-0.01617431640625,-0.00457763671875,-0.0067138671875,-0.01800537109375,-0.0054931640625,-0.00213623046875,-0.0079345703125,0.0006103515625,-0.0030517578125,-0.010986328125,0.0006103515625,-0.00091552734375,-0.02166748046875,0.07313049584627151,0.06292083859443665,0.027353515848517418,0.01995757967233658,0.02788085862994194,0.023002929985523224,0.032974548637866974,0.02858062833547592,0.01474914513528347,0.01930999755859375,0.028093872591853142
-0.00244140625,-0.0006103515625,0.01373291015625,-0.00885009765625,-0.0054931640625,0.00091552734375,-0.00152587890625,-0.00213623046875,-0.01617431640625,-0.018310546875,-0.03021240234375,-0.00946044921875,-0.01678466796875,-0.0177001953125,-0.02166748046875,-0.009765625,-0.0018310546875,-0.0030517578125,-0.0079345703125,-0.00396728515625,-0.0054931640625,-0.00518798828125,-0.00091552734375,-0.00213623046875,-0.00244140625,-0.0048828125,-0.00823974609375,-0.003662109375,-0.00274658203125,-0.0006103515625,0.00213623046875,-0.00732421875,0.00244140625,-0.00579833984375,-0.00885009765625,-0.00732421875,-0.0030517578125,0.01983642578125,-0.0018310546875,-0.0030517578125,0.08518493920564651,0.06887176632881165,0.03315185382962227,0.01675323396921158,0.02604980394244194,0.022545166313648224,0.031753845512866974,0.04216095060110092,0.05167541652917862,0.03716278076171875,0.03404479846358299
0.0048828125,-0.0006103515625,-0.0006103515625,-0.00732421875,-0.00518798828125,-0.00335693359375,0.0,-0.0054931640625,-0.02349853515625,-0.01983642578125,-0.0311279296875,-0.0128173828125,-0.01953125,-0.01007080078125,-0.02471923828125,-0.01556396484375,-0.00091552734375,-0.0048828125,-0.00885009765625,-0.00518798828125,-0.00762939453125,-0.0067138671875,-0.0018310546875,-0.00457763671875,-0.00091552734375,-0.010986328125,-0.0042724609375,0.00030517578125,-0.00244140625,-0.00335693359375,-0.0048828125,-0.00274658203125,-0.00091552734375,-0.0054931640625,-0.003662109375,0.0030517578125,0.00030517578125,-0.00335693359375,-0.01068115234375,-0.00518798828125,0.08106506615877151,0.10183075070381165,0.016977539286017418,0.02514556795358658,0.03657836839556694,0.035667724907398224,0.034653015434741974,0.04124542325735092,0.03748474270105362,0.02754974365234375,0.020159302279353142
-0.00518798828125,0.00762939453125,-0.0018310546875,-0.008544921875,-0.006103515625,-0.003662109375,-0.0018310546875,-0.00213623046875,-0.01739501953125,-0.01708984375,-0.028076171875,-0.00885009765625,-0.01251220703125,-0.0128173828125,-0.01129150390625,-0.01190185546875,-0.003662109375,-0.0048828125,-0.00823974609375,-0.0091552734375,-0.00457763671875,-0.0006103515625,-0.00579833984375,-0.003662109375,0.00396728515625,0.00457763671875,-0.00732421875,-0.02960205078125,-0.00579833984375,-0.01007080078125,0.01190185546875,-0.00640869140625,0.003662109375,0.0006103515625,-0.00091552734375,0.0006103515625,-0.00335693359375,-0.00274658203125,-0.0018310546875,-0.00152587890625,0.07252014428377151,0.09526947140693665,0.018656006082892418,0.01827911287546158,0.01796264573931694,0.047569580376148224,0.044266052544116974,0.01850982755422592,0.04236755520105362,0.02175140380859375,0.027636108919978142
-0.00152587890625,-0.00213623046875,-0.001220703125,-0.0067138671875,-0.00518798828125,-0.0006103515625,0.001220703125,-0.00091552734375,-0.0042724609375,-0.001220703125,-0.02197265625,-0.0018310546875,-0.00030517578125,-0.00274658203125,-0.001220703125,-0.00091552734375,-0.00091552734375,0.00244140625,-0.008544921875,-0.00244140625,-0.02349853515625,-0.01129150390625,-0.0067138671875,0.001220703125,-0.00030517578125,-0.00457763671875,0.0042724609375,0.00091552734375,-0.0042724609375,-0.00335693359375,0.00152587890625,0.00152587890625,0.00640869140625,-0.003662109375,0.0,0.001220703125,-0.0030517578125,-0.00152587890625,0.0042724609375,-0.0067138671875,0.09601867944002151,0.09267547726631165,0.026895752176642418,0.03140167146921158,0.03520507737994194,0.033378906548023224,0.036636658012866974,0.03956695646047592,0.01795349083840847,0.02175140380859375,0.04075866565108299
-0.0091552734375,0.0,-0.00274658203125,0.00274658203125,-0.0042724609375,-0.00030517578125,-0.01373291015625,-0.00152587890625,-0.0042724609375,0.00030517578125,-0.02166748046875,-0.00244140625,0.0054931640625,-0.00244140625,0.00030517578125,-0.01373291015625,0.001220703125,0.00152587890625,-0.0048828125,-0.01800537109375,-0.00823974609375,-0.008544921875,0.008544921875,-0.00701904296875,0.00396728515625,0.0,0.001220703125,-0.00396728515625,-0.00732421875,-0.0006103515625,-0.0054931640625,-0.00274658203125,-0.00274658203125,-0.0030517578125,0.0006103515625,-0.00518798828125,-0.00457763671875,-0.00701904296875,-0.00640869140625,-0.00823974609375,0.09632385522127151,0.07161834836006165,0.0008032226469367743,0.02834991365671158,0.04069824144244194,0.033378906548023224,0.035110779106616974,0.02858062833547592,0.02588806115090847,0.02388763427734375,0.026262817904353142
0.00152587890625,-0.00152587890625,-0.00518798828125,0.00396728515625,-0.00457763671875,0.0006103515625,0.003662109375,-0.00152587890625,-0.00152587890625,-0.0018310546875,-0.0213623046875,-0.00396728515625,-0.001220703125,-0.00640869140625,-0.00213623046875,-0.0018310546875,-0.00152587890625,0.001220703125,-0.00518798828125,-0.00640869140625,-0.00091552734375,-0.0201416015625,-0.006103515625,-0.00732421875,-0.00213623046875,0.00030517578125,-0.0067138671875,-0.00518798828125,-0.00518798828125,-0.001220703125,-0.00030517578125,0.00518798828125,-0.00091552734375,0.00091552734375,-0.01617431640625,-0.0054931640625,-0.00244140625,-0.00274658203125,0.00213623046875,-0.0067138671875,0.040171507745981216,0.10045745968818665,0.03788207843899727,0.0008840942173264921,0.03474731370806694,0.036430664360523224,0.027328796684741974,0.02613922208547592,0.03199157863855362,0.01717376708984375,0.017870483919978142
-0.0018310546875,-0.00213623046875,-0.0006103515625,-0.00885009765625,-0.00518798828125,-0.0018310546875,0.0,-0.00213623046875,-0.0091552734375,-0.0018310546875,-0.0189208984375,0.00396728515625,-0.001220703125,-0.00244140625,-0.0091552734375,-0.00244140625,-0.0054931640625,0.00274658203125,0.0006103515625,-0.0018310546875,-0.00640869140625,-0.010986328125,-0.003662109375,-0.00396728515625,0.001220703125,-0.003662109375,-0.0018310546875,-0.0048828125,-0.00335693359375,-0.00946044921875,-0.0018310546875,0.00244140625,0.00091552734375,0.0,0.00457763671875,0.00274658203125,-0.003662109375,-0.01922607421875,-0.0018310546875,-0.0018310546875,-0.049855347722768784,0.10518768429756165,0.03254150226712227,0.03933624178171158,0.02055663987994194,0.032463379204273224,0.027939148247241974,0.02064605802297592,0.03519592434167862,0.02205657958984375,0.027025757357478142
-0.0042724609375,-0.01373291015625,-0.001220703125,-0.0091552734375,-0.01434326171875,-0.00213623046875,-0.00213623046875,-0.01129150390625,-0.00213623046875,0.0,-0.0115966796875,-0.00091552734375,-0.00244140625,0.01190185546875,0.0,-0.001220703125,0.00213623046875,-0.00030517578125,-0.00640869140625,0.00335693359375,-0.0048828125,-0.00823974609375,0.008544921875,-0.0042724609375,-0.00701904296875,-0.0146484375,-0.00518798828125,-0.0054931640625,-0.001220703125,-0.0018310546875,-0.00457763671875,-0.0048828125,0.00335693359375,0.0006103515625,0.0054931640625,0.00152587890625,-0.0048828125,-0.00091552734375,0.00457763671875,0.00396728515625,-0.054127808660268784,0.16683319211006165,0.03315185382962227,0.05398467928171158,0.02299804612994194,0.016441650688648224,0.052505798637866974,0.02583404630422592,0.04068908840417862,0.04906463623046875,0.03450256213545799
-0.00244140625,0.00396728515625,-0.00030517578125,-0.0091552734375,-0.01556396484375,-0.001220703125,-0.00396728515625,0.003662109375,-0.00396728515625,-0.00244140625,-0.0274658203125,-0.0042724609375,-0.0018310546875,0.00579833984375,-0.00335693359375,-0.00152587890625,-0.009765625,-0.00457763671875,-0.0067138671875,-0.0067138671875,0.00274658203125,-0.00213623046875,0.00030517578125,0.00946044921875,0.0042724609375,-0.00091552734375,-0.008544921875,-0.00457763671875,-0.00518798828125,-0.01556396484375,-0.009765625,-0.00274658203125,-0.00213623046875,-0.0030517578125,-0.00335693359375,-0.0018310546875,-0.00396728515625,-0.006103515625,-0.006103515625,-0.0042724609375,-0.07884704321622849,0.16042450070381165,0.018503418192267418,0.04833892732858658,0.03322143480181694,0.015526123344898224,0.030533142387866974,0.02858062833547592,0.03260193020105362,0.02571868896484375,0.029772339388728142
-0.00518798828125,-0.0042724609375,-0.0006103515625,-0.0067138671875,-0.00457763671875,-0.00335693359375,-0.0048828125,-0.00335693359375,0.00244140625,-0.015869140625,-0.0152587890625,0.0,-0.01007080078125,-0.0048828125,-0.00518798828125,-0.0018310546875,-0.00701904296875,0.0140380859375,-0.0042724609375,-0.00396728515625,-0.0091552734375,-0.0030517578125,0.0018310546875,-0.00091552734375,-0.003662109375,-0.00640869140625,-0.0054931640625,0.0054931640625,-0.00335693359375,-0.0079345703125,0.00152587890625,-0.0067138671875,0.00091552734375,-0.0042724609375,-0.0048828125,-0.00579833984375,-0.00579833984375,-0.00732421875,-0.0067138671875,-0.00640869140625,-0.0008746337844058871,0.13524749875068665,0.018503418192267418,0.04315093904733658,0.03810424730181694,0.023613281548023224,0.046249695122241974,0.03712555021047592,0.02802429161965847,0.04372406005859375,0.021380005404353142
-0.00396728515625,-0.00518798828125,0.00030517578125,-0.0115966796875,-0.00579833984375,-0.00823974609375,-0.0018310546875,-0.00396728515625,-0.0238037109375,-0.01983642578125,-0.03265380859375,0.00213623046875,-0.01861572265625,-0.020751953125,-0.03326416015625,-0.01251220703125,-0.008544921875,-0.00091552734375,-0.00213623046875,-0.00823974609375,-0.0079345703125,-0.0079345703125,-0.0006103515625,-0.00244140625,-0.0018310546875,0.0030517578125,-0.00244140625,-0.006103515625,-0.01220703125,-0.01190185546875,-0.0054931640625,0.01708984375,-0.00152587890625,-0.00030517578125,-0.00640869140625,-0.00457763671875,-0.0079345703125,-0.006103515625,-0.00152587890625,-0.00244140625,0.025980835780501366,0.008141784928739071,0.020334472879767418,0.02529815584421158,0.03901977464556694,0.042076416313648224,0.024582214653491974,0.03559967130422592,0.03412780910730362,0.02098846435546875,0.019701538607478142
-0.0030517578125,-0.0048828125,-0.00274658203125,-0.00762939453125,-0.00457763671875,-0.00457763671875,0.00030517578125,-0.001220703125,-0.02166748046875,-0.02197265625,-0.03448486328125,-0.01312255859375,-0.0213623046875,-0.0213623046875,-0.02593994140625,-0.01495361328125,-0.0103759765625,-0.003662109375,-0.00946044921875,-0.01068115234375,-0.00244140625,-0.01190185546875,-0.00762939453125,-0.0054931640625,-0.00244140625,-0.00396728515625,-0.00335693359375,-0.0054931640625,-0.00640869140625,-0.00762939453125,-0.0067138671875,-0.00946044921875,-0.0042724609375,-0.00823974609375,-0.01068115234375,-0.0054931640625,-0.0079345703125,-0.0079345703125,-0.00518798828125,-0.01068115234375,0.038493040949106216,-0.14780303835868835,0.010263672098517418,0.03964141756296158,0.03505248948931694,0.054283447563648224,0.037704773247241974,0.02034088224172592,0.03077087365090847,0.01747894287109375,0.029772339388728142
-0.00396728515625,-0.00213623046875,-0.01007080078125,-0.00823974609375,-0.0042724609375,0.00762939453125,-0.00244140625,-0.00335693359375,-0.0189208984375,-0.0177001953125,-0.02685546875,-0.0128173828125,-0.01373291015625,-0.015869140625,-0.015869140625,-0.01251220703125,-0.00732421875,-0.0048828125,-0.00579833984375,-0.00457763671875,-0.00274658203125,-0.001220703125,-0.00274658203125,-0.001220703125,0.00030517578125,-0.00030517578125,-0.00244140625,-0.01373291015625,-0.0048828125,-0.0103759765625,-0.01708984375,-0.00762939453125,-0.0042724609375,-0.00091552734375,-0.006103515625,-0.00091552734375,-0.01190185546875,-0.0042724609375,0.00152587890625,0.00762939453125,0.017588501796126366,-0.12048980593681335,0.026590576395392418,0.04330352693796158,0.04939575120806694,0.039482422173023224,0.017105408012866974,0.03590484708547592,0.02405700646340847,0.02205657958984375,0.024279175326228142
-0.00457763671875,-0.0030517578125,-0.00213623046875,-0.00579833984375,-0.00732421875,-0.00518798828125,-0.0054931640625,-0.00335693359375,-0.0018310546875,0.00274658203125,-0.01922607421875,-0.00457763671875,0.0030517578125,-0.00274658203125,-0.00213623046875,-0.00396728515625,-0.009765625,0.00396728515625,-0.00274658203125,-0.00396728515625,-0.00457763671875,-0.0048828125,-0.0018310546875,-0.00335693359375,-0.0018310546875,-0.00518798828125,-0.00701904296875,-0.00152587890625,-0.00579833984375,-0.00579833984375,-0.00030517578125,-0.0054931640625,0.0006103515625,-0.01251220703125,-0.0054931640625,-0.008544921875,-0.00091552734375,-0.00274658203125,-0.00213623046875,-0.00457763671875,0.041849974542856216,-0.055639952421188354,0.03986572101712227,0.03338531404733658,0.03642578050494194,0.031395263969898224,0.039688415825366974,0.03086944669485092,0.02222595177590847,-0.00083160400390625,0.03221374377608299
-0.00244140625,-0.0030517578125,-0.00244140625,-0.01251220703125,-0.0042724609375,-0.00213623046875,-0.0006103515625,-0.00213623046875,0.00274658203125,-0.0030517578125,-0.02105712890625,0.0079345703125,-0.00213623046875,-0.0048828125,-0.0091552734375,-0.00091552734375,-0.0054931640625,-0.00579833984375,-0.0030517578125,-0.001220703125,0.00030517578125,-0.0054931640625,-0.001220703125,-0.0067138671875,-0.00732421875,-0.01312255859375,-0.0054931640625,-0.00518798828125,-0.00640869140625,-0.00732421875,-0.00274658203125,-0.003662109375,-0.00274658203125,0.0,-0.0018310546875,-0.00701904296875,-0.006103515625,-0.00640869140625,0.0030517578125,0.0006103515625,0.034983519464731216,-0.007269592490047216,0.03910278156399727,0.05398467928171158,0.03016967698931694,0.030784912407398224,0.042129822075366974,0.01973053067922592,0.04557190090417862,0.03105926513671875,0.03969055041670799
-0.00213623046875,-0.00762939453125,-0.00152587890625,-0.01068115234375,-0.003662109375,-0.00274658203125,-0.00091552734375,-0.0042724609375,-0.0048828125,-0.00396728515625,-0.0177001953125,-0.003662109375,-0.00518798828125,-0.01251220703125,-0.0018310546875,-0.0042724609375,0.00396728515625,-0.0048828125,-0.00091552734375,-0.01373291015625,-0.00152587890625,0.00030517578125,0.00762939453125,-0.00091552734375,-0.0018310546875,-0.00518798828125,-0.0042724609375,-0.0067138671875,-0.0067138671875,-0.00732421875,-0.0128173828125,-0.0079345703125,-0.0018310546875,-0.00640869140625,-0.00335693359375,-0.00396728515625,-0.0079345703125,-0.00885009765625,-0.00091552734375,0.0,0.035441283136606216,-0.0007083129603415728,0.023843994364142418,0.012328186072409153,0.02345580980181694,0.021629638969898224,0.055404968559741974,0.02446075528860092,0.03122863732278347,0.02144622802734375,0.06196838244795799
-0.00457763671875,-0.00152587890625,-0.0018310546875,-0.0115966796875,-0.0091552734375,-0.0018310546875,-0.00335693359375,-0.00152587890625,-0.0030517578125,-0.0048828125,-0.0177001953125,-0.0048828125,-0.00396728515625,-0.003662109375,-0.00335693359375,-0.00274658203125,-0.00030517578125,0.0030517578125,-0.00518798828125,-0.0115966796875,-0.00457763671875,-0.01312255859375,-0.01922607421875,-0.00579833984375,-0.0054931640625,-0.003662109375,-0.00732421875,-0.00823974609375,-0.02532958984375,-0.008544921875,-0.00244140625,-0.01556396484375,-0.0048828125,0.0,0.0054931640625,-0.00396728515625,-0.003662109375,0.01983642578125,-0.00335693359375,-0.00518798828125,0.023386841639876366,0.014245300553739071,0.03360961750149727,0.03048614412546158,0.03306884691119194,0.020103760063648224,0.029312439262866974,0.03910919278860092,0.04129943996667862,0.05211639404296875,0.011461791582405567
-0.0054931640625,-0.00274658203125,-0.0042724609375,-0.0048828125,-0.00701904296875,-0.00335693359375,-0.01373291015625,-0.0048828125,-0.00579833984375,0.00030517578125,-0.0213623046875,-0.00579833984375,0.00640869140625,-0.00579833984375,-0.0030517578125,-0.00152587890625,-0.00640869140625,0.0030517578125,-0.00335693359375,-0.0042724609375,0.00732421875,-0.00701904296875,-0.006103515625,-0.01129150390625,-0.001220703125,-0.00030517578125,-0.00396728515625,-0.00244140625,-0.00823974609375,-0.008544921875,-0.00640869140625,-0.00213623046875,-0.0048828125,-0.0018310546875,-0.00701904296875,-0.00213623046875,-0.00274658203125,-0.0054931640625,-0.0018310546875,0.0006103515625,0.054514769464731216,0.006768493447452784,0.021402588114142418,0.02972320467233658,0.03596801683306694,0.031090088188648224,0.044571228325366974,0.03575225919485092,0.03611145168542862,0.01045989990234375,0.029467163607478142
-0.00274658203125,0.0018310546875,-0.00213623046875,-0.008544921875,-0.0103759765625,-0.00335693359375,-0.00335693359375,-0.00152587890625,-0.0042724609375,-0.001220703125,-0.020751953125,-0.001220703125,-0.00335693359375,-0.0048828125,0.0128173828125,0.0,-0.0054931640625,-0.001220703125,-0.0067138671875,-0.0006103515625,-0.001220703125,-0.00213623046875,-0.0189208984375,-0.00213623046875,-0.006103515625,-0.001220703125,-0.00335693359375,0.0018310546875,-0.00457763671875,-0.009765625,-0.00823974609375,-0.00213623046875,-0.0006103515625,-0.0006103515625,-0.00274658203125,-0.00823974609375,-0.009765625,-0.006103515625,0.00701904296875,0.00244140625,0.036814574152231216,0.041253358125686646,0.03833984211087227,0.04772857576608658,0.03612060472369194,0.023155517876148224,0.041672058403491974,0.03056427091360092,0.03519592434167862,0.01610565185546875,0.022905884310603142
-0.00335693359375,0.00091552734375,-0.00457763671875,-0.00732421875,-0.0067138671875,0.00091552734375,-0.00244140625,0.00030517578125,0.006103515625,0.0018310546875,-0.015869140625,-0.00396728515625,-0.0018310546875,-0.0018310546875,0.00701904296875,-0.0018310546875,-0.0067138671875,-0.00030517578125,-0.00213623046875,-0.0042724609375,0.00030517578125,-0.0054931640625,0.0,0.00030517578125,-0.0018310546875,0.0018310546875,-0.001220703125,-0.0079345703125,-0.0030517578125,-0.01068115234375,-0.00762939453125,-0.0018310546875,-0.006103515625,-0.0048828125,-0.006103515625,-0.00823974609375,-0.0067138671875,-0.0067138671875,-0.00152587890625,-0.0042724609375,0.023539429530501366,-0.006811828818172216,0.029489746317267418,0.03430084139108658,0.02849121019244194,0.028038330376148224,0.041977234184741974,0.05650421231985092,0.01932678185403347,0.01412200927734375,0.018633423373103142
-0.0018310546875,-0.0006103515625,-0.00244140625,-0.00701904296875,-0.00579833984375,-0.00457763671875,-0.00152587890625,-0.00152587890625,-0.02166748046875,-0.01708984375,-0.03173828125,-0.01068115234375,-0.0152587890625,-0.01953125,-0.02288818359375,-0.0115966796875,-0.00579833984375,-0.006103515625,-0.001220703125,-0.00762939453125,-0.0030517578125,-0.001220703125,-0.0079345703125,-0.00640869140625,-0.003662109375,-0.0067138671875,-0.00244140625,-0.00579833984375,-0.0054931640625,-0.00518798828125,-0.0054931640625,-0.0042724609375,-0.00091552734375,-0.00091552734375,-0.0030517578125,0.00030517578125,0.0006103515625,-0.00091552734375,0.00091552734375,-0.00030517578125,0.020792847499251366,0.06749847531318665,0.03345702961087227,0.04605010896921158,0.03825683519244194,0.017052002251148224,0.021225281059741974,0.03514190763235092,0.02680358849465847,0.02587127685546875,0.009172973223030567
0.0,-0.00213623046875,-0.00030517578125,-0.003662109375,-0.00701904296875,-0.00274658203125,-0.00701904296875,0.0006103515625,-0.02410888671875,-0.02166748046875,-0.03204345703125,-0.0146484375,-0.01983642578125,-0.01800537109375,-0.02410888671875,-0.0164794921875,-0.00640869140625,0.0030517578125,-0.0006103515625,-0.0030517578125,-0.02349853515625,-0.00946044921875,-0.003662109375,0.0164794921875,0.00152587890625,-0.00091552734375,-0.00335693359375,-0.00335693359375,-0.00701904296875,-0.00213623046875,0.00030517578125,0.0018310546875,-0.0048828125,-0.0042724609375,-0.00732421875,-0.001220703125,0.00335693359375,-0.00213623046875,-0.00335693359375,-0.0128173828125,0.026133423671126366,0.047814637422561646,0.03437255695462227,0.06924346834421158,0.04039306566119194,0.032005615532398224,-0.007461242843419313,0.02415557950735092,0.03458557277917862,0.01045989990234375,0.025652466341853142
-0.00274658203125,-0.00091552734375,0.0006103515625,-0.0067138671875,-0.0079345703125,-0.0042724609375,-0.00213623046875,-0.0103759765625,-0.0189208984375,-0.01617431640625,-0.035400390625,-0.0091552734375,-0.01129150390625,-0.013427734375,-0.013427734375,-0.01251220703125,-0.003662109375,-0.0018310546875,-0.0054931640625,-0.0042724609375,0.0042724609375,-0.00396728515625,0.0018310546875,-0.00335693359375,0.001220703125,-0.01434326171875,-0.006103515625,-0.01007080078125,-0.01800537109375,-0.00762939453125,-0.00213623046875,-0.00732421875,-0.00518798828125,-0.00274658203125,-0.001220703125,-0.003662109375,-0.00274658203125,-0.0067138671875,0.003662109375,0.00030517578125,0.051920775324106216,0.018212584778666496,0.015299072489142418,0.03185943514108658,-0.004925536923110485,0.019035644829273224,0.022903747856616974,0.009507141076028347,0.04221496731042862,0.03212738037109375,0.020464478060603142
-0.00213623046875,-0.00152587890625,-0.0018310546875,-0.0091552734375,-0.0054931640625,-0.00457763671875,-0.006103515625,-0.003662109375,-0.00396728515625,-0.00244140625,-0.020751953125,-0.001220703125,-0.00640869140625,-0.00396728515625,-0.00335693359375,0.0006103515625,-0.0048828125,-0.0030517578125,-0.00091552734375,-0.00762939453125,0.00213623046875,-0.003662109375,0.001220703125,0.0018310546875,0.00030517578125,-0.00457763671875,-0.0042724609375,-0.00946044921875,0.0,-0.0103759765625,-0.0054931640625,-0.00030517578125,-0.0048828125,-0.00213623046875,0.00335693359375,-0.001220703125,-0.001220703125,-0.008544921875,0.00091552734375,-0.00274658203125,0.039255980402231216,0.007989197038114071,0.04444335773587227,0.04223541170358658,0.02696533128619194,0.039635010063648224,0.032211609184741974,0.02751251310110092,0.04236755520105362,0.04845428466796875,0.021227417513728142
-0.0048828125,-0.01068115234375,-0.00244140625,-0.0067138671875,0.00457763671875,-0.00091552734375,-0.00091552734375,-0.0152587890625,-0.003662109375,-0.0018310546875,-0.01739501953125,-0.00396728515625,0.0,0.003662109375,-0.00213623046875,-0.00274658203125,0.00091552734375,0.00518798828125,0.0,0.0054931640625,0.00213623046875,-0.0042724609375,-0.00274658203125,0.00274658203125,-0.0030517578125,-0.0018310546875,-0.001220703125,-0.00335693359375,-0.00213623046875,-0.00396728515625,-0.00701904296875,0.00732421875,0.0018310546875,0.0006103515625,0.00274658203125,0.00213623046875,-0.0006103515625,0.00091552734375,0.00335693359375,0.00640869140625,-0.004536743275821209,-0.029089661315083504,0.03833984211087227,-0.012696227990090847,0.03505248948931694,0.022087402641773224,0.022598572075366974,0.02644439786672592,0.04877624660730362,0.05867767333984375,0.018786011263728142
-0.00396728515625,-0.0067138671875,-0.00152587890625,-0.009765625,-0.00823974609375,-0.00335693359375,-0.00091552734375,-0.00213623046875,-0.00274658203125,-0.00152587890625,-0.01678466796875,-0.00213623046875,-0.0018310546875,-0.01434326171875,-0.00274658203125,-0.0006103515625,-0.00640869140625,0.0091552734375,-0.00274658203125,-0.0030517578125,-0.00213623046875,-0.00213623046875,-0.00579833984375,-0.00213623046875,-0.001220703125,0.00274658203125,-0.0018310546875,-0.0048828125,-0.0048828125,-0.00946044921875,-0.0018310546875,-0.0067138671875,0.0006103515625,0.00640869140625,0.00152587890625,-0.00396728515625,-0.0262451171875,-0.0091552734375,0.0,-0.0048828125,0.016978150233626366,-0.044195860624313354,0.03208373859524727,0.009886779822409153,0.03093261644244194,0.018730469048023224,0.027481384575366974,0.02491851896047592,0.02832946740090847,0.02068328857421875,0.022295532748103142
-0.00091552734375,-0.003662109375,0.0,-0.018310546875,-0.0030517578125,-0.0030517578125,0.0079345703125,-0.0042724609375,-0.00091552734375,0.00030517578125,-0.02227783203125,-0.00518798828125,-0.0018310546875,-0.0006103515625,-0.001220703125,-0.001220703125,-0.00579833984375,0.00244140625,-0.015869140625,-0.00885009765625,-0.00274658203125,-0.00030517578125,-0.00457763671875,-0.00518798828125,-0.00579833984375,-0.001220703125,0.00030517578125,-0.00244140625,0.00396728515625,-0.00701904296875,-0.00244140625,0.00640869140625,-0.003662109375,-0.006103515625,0.0079345703125,-0.00030517578125,-0.0048828125,-0.00762939453125,-0.0006103515625,0.00213623046875,0.041544798761606216,-0.010626525618135929,0.04047607257962227,0.01705840975046158,0.02894897386431694,0.020866699516773224,0.029770202934741974,0.03224273771047592,0.03244934231042862,0.01580047607421875,0.03145080432295799
-0.00762939453125,-0.0006103515625,0.0,0.0054931640625,-0.0042724609375,-0.0042724609375,0.00885009765625,-0.0006103515625,-0.0006103515625,0.00732421875,-0.0201416015625,-0.0030517578125,-0.0006103515625,-0.00213623046875,-0.00152587890625,-0.00244140625,-0.00335693359375,0.001220703125,-0.00732421875,-0.006103515625,-0.006103515625,-0.0042724609375,-0.0067138671875,-0.00579833984375,0.00274658203125,0.00213623046875,-0.0006103515625,0.00244140625,-0.00244140625,-0.0042724609375,-0.009765625,-0.001220703125,0.00213623046875,-0.00640869140625,-0.0018310546875,0.00244140625,-0.0006103515625,-0.0030517578125,-0.00091552734375,0.00457763671875,0.022623902186751366,0.0032589721959084272,0.03666137531399727,0.03170684725046158,0.03306884691119194,0.020561523735523224,0.060745544731616974,0.03209014981985092,0.02481994591653347,0.01961517333984375,0.03328185901045799
-0.003662109375,0.0006103515625,-0.00213623046875,-0.01708984375,-0.00457763671875,-0.00213623046875,-0.01190185546875,-0.00274658203125,-0.00244140625,0.00640869140625,-0.02166748046875,-0.00213623046875,0.01068115234375,-0.0018310546875,0.00030517578125,-0.0146484375,-0.00640869140625,-0.0018310546875,-0.0048828125,-0.00732421875,-0.00274658203125,-0.00244140625,-0.0067138671875,-0.0054931640625,-0.003662109375,-0.0067138671875,-0.00640869140625,-0.0079345703125,-0.0054931640625,-0.01129150390625,-0.009765625,-0.001220703125,-0.00396728515625,-0.00152587890625,0.0,-0.00213623046875,0.001220703125,0.0,0.001220703125,-0.0006103515625,0.028269654139876366,0.017602233216166496,0.007669677957892418,0.02896026521921158,0.03734130784869194,0.047264404594898224,0.035415954887866974,0.013779602013528347,-0.01576843298971653,0.01213836669921875,0.021685181185603142
-0.003662109375,-0.00335693359375,0.0018310546875,-0.00885009765625,-0.00518798828125,-0.00396728515625,-0.0006103515625,-0.001220703125,0.00213623046875,0.0,-0.01312255859375,-0.00213623046875,-0.00091552734375,-0.00274658203125,-0.0054931640625,-0.0030517578125,-0.00335693359375,-0.006103515625,-0.0079345703125,-0.008544921875,-0.00732421875,0.00152587890625,-0.0115966796875,-0.0018310546875,0.00030517578125,0.003662109375,-0.0006103515625,0.00457763671875,-0.0048828125,-0.00732421875,0.00762939453125,0.0006103515625,-0.0018310546875,-0.00396728515625,-0.00244140625,-0.0091552734375,-0.00518798828125,-0.0079345703125,-0.00396728515625,-0.0018310546875,0.042002562433481216,0.027062682434916496,0.03803466632962227,0.02529815584421158,0.03291625902056694,0.018883056938648224,0.041977234184741974,0.02903839200735092,0.03107604943215847,0.01732635498046875,0.024736938998103142
-0.0042724609375,-0.00396728515625,0.008544921875,-0.01007080078125,-0.00457763671875,-0.00396728515625,-0.0018310546875,-0.00152587890625,-0.0225830078125,-0.023193359375,-0.03021240234375,-0.01220703125,-0.03173828125,-0.0213623046875,-0.02410888671875,-0.00732421875,-0.00732421875,-0.0018310546875,-0.00335693359375,-0.00823974609375,-0.0030517578125,-0.01190185546875,-0.00823974609375,-0.00732421875,-0.001220703125,0.00152587890625,-0.008544921875,-0.00335693359375,-0.0054931640625,-0.00732421875,-0.0054931640625,-0.00030517578125,-0.00213623046875,-0.00152587890625,-0.00762939453125,-0.0067138671875,-0.00396728515625,-0.00946044921875,-0.003662109375,0.0006103515625,0.031016236171126366,0.035760194063186646,0.03620361164212227,0.013701477088034153,0.03032226487994194,0.019035644829273224,0.033584900200366974,0.02735992521047592,0.03550110012292862,0.00069427490234375,0.03389221057295799
-0.00732421875,-0.0030517578125,-0.00244140625,-0.01129150390625,-0.00579833984375,-0.0030517578125,-0.0030517578125,0.001220703125,-0.02410888671875,-0.020751953125,-0.03814697265625,-0.01617431640625,-0.02044677734375,-0.02044677734375,-0.02532958984375,-0.0146484375,-0.0018310546875,-0.01129150390625,-0.00335693359375,-0.00457763671875,-0.01068115234375,-0.00579833984375,-0.0048828125,-0.01068115234375,-0.00030517578125,-0.001220703125,-0.0042724609375,-0.00457763671875,-0.0067138671875,-0.01068115234375,-0.0103759765625,-0.0067138671875,-0.00213623046875,-0.00274658203125,0.001220703125,-0.00030517578125,-0.00457763671875,-0.00732421875,-0.00640869140625,0.00885009765625,0.049784544855356216,0.031945496797561646,0.026743164286017418,0.01705840975046158,0.03612060472369194,0.035972900688648224,0.043960876762866974,0.03209014981985092,0.03336486965417862,0.01717376708984375,0.03648620471358299
-0.00244140625,-0.00335693359375,-0.02349853515625,-0.00762939453125,-0.0067138671875,-0.020751953125,-0.0030517578125,-0.00335693359375,-0.0140380859375,-0.01861572265625,-0.02899169921875,-0.02899169921875,-0.0115966796875,-0.0146484375,-0.035400390625,-0.01556396484375,-0.00457763671875,0.00213623046875,0.001220703125,-0.00457763671875,-0.0030517578125,-0.0042724609375,-0.0054931640625,0.00457763671875,-0.00335693359375,-0.00244140625,-0.00244140625,-0.01068115234375,-0.00274658203125,-0.0048828125,-0.00701904296875,-0.0030517578125,-0.00823974609375,-0.0006103515625,-0.00457763671875,-0.00335693359375,-0.00030517578125,-0.00762939453125,-0.006103515625,-0.0018310546875,0.022471314296126366,-0.028021546080708504,0.028421631082892418,0.03109649568796158,0.01933593675494194,0.031547851860523224,0.041977234184741974,0.004624328576028347,0.04282531887292862,0.03166961669921875,0.029772339388728142
-0.00213623046875,-0.00091552734375,-0.00823974609375,-0.0091552734375,-0.00457763671875,-0.001220703125,-0.00335693359375,-0.003662109375,-0.0054931640625,-0.003662109375,-0.020751953125,-0.0018310546875,-0.00396728515625,-0.00457763671875,-0.00244140625,-0.0042724609375,-0.0006103515625,-0.00213623046875,-0.00335693359375,-0.00274658203125,-0.00885009765625,-0.0054931640625,-0.00244140625,0.0006103515625,-0.00152587890625,-0.00518798828125,-0.0030517578125,-0.0079345703125,-0.006103515625,-0.0115966796875,-0.01129150390625,0.00091552734375,-0.00213623046875,0.00213623046875,0.00335693359375,-0.0006103515625,-0.00244140625,0.0006103515625,-0.0030517578125,-0.0006103515625,0.019114380702376366,0.027520446106791496,0.03452514484524727,0.05871490389108658,0.04161376878619194,0.021782226860523224,0.038162536919116974,0.03025909513235092,0.04252014309167862,0.03350067138671875,0.03221374377608299
-0.00274658203125,-0.00335693359375,0.00274658203125,-0.008544921875,-0.0042724609375,0.00579833984375,-0.003662109375,-0.00335693359375,-0.00396728515625,-0.0006103515625,-0.023193359375,-0.0048828125,-0.00152587890625,-0.00152587890625,-0.0030517578125,0.0054931640625,-0.00701904296875,-0.0042724609375,-0.006103515625,-0.010986328125,-0.0018310546875,-0.0048828125,-0.003662109375,-0.0115966796875,-0.00823974609375,0.0006103515625,-0.00213623046875,-0.00396728515625,-0.0042724609375,-0.00762939453125,-0.0030517578125,-0.00701904296875,-0.0042724609375,0.00213623046875,0.00152587890625,-0.00335693359375,0.0054931640625,-0.0067138671875,0.0006103515625,-0.0054931640625,0.020029908046126366,0.034386903047561646,0.029489746317267418,0.07641509920358658,0.04359741136431694,0.045585937798023224,0.029007263481616974,0.02919097989797592,0.03275451809167862,0.01564788818359375,0.020006714388728142
-0.0030517578125,-0.00244140625,-0.00244140625,-0.0091552734375,-0.003662109375,-0.0042724609375,-0.0018310546875,-0.00518798828125,-0.0030517578125,-0.00152587890625,-0.01800537109375,-0.0042724609375,-0.0054931640625,-0.01068115234375,-0.00274658203125,-0.00152587890625,-0.006103515625,-0.00335693359375,-0.0048828125,-0.00091552734375,-0.0018310546875,-0.00732421875,-0.00823974609375,-0.006103515625,-0.001220703125,-0.008544921875,-0.0018310546875,0.00213623046875,-0.0006103515625,-0.009765625,-0.03143310546875,-0.00701904296875,-0.00457763671875,0.0048828125,-0.0018310546875,-0.001220703125,-0.00030517578125,-0.00335693359375,-0.00457763671875,-0.0006103515625,0.020335083827376366,0.046899110078811646,0.029794922098517418,0.07107452303171158,0.02009887620806694,0.032463379204273224,0.018478699028491974,0.01805206388235092,0.02588806115090847,0.02648162841796875,0.027788696810603142
-0.003662109375,-0.0030517578125,-0.00213623046875,-0.008544921875,-0.0091552734375,-0.00335693359375,-0.0048828125,-0.00030517578125,-0.00457763671875,-0.00152587890625,-0.01678466796875,-0.00274658203125,-0.00457763671875,0.00274658203125,-0.00396728515625,-0.00335693359375,-0.0018310546875,-0.00579833984375,-0.00640869140625,-0.0030517578125,-0.00823974609375,-0.00396728515625,-0.00396728515625,-0.00640869140625,-0.006103515625,-0.008544921875,-0.00335693359375,-0.00946044921875,-0.0067138671875,-0.00946044921875,-0.0115966796875,-0.00518798828125,-0.00274658203125,-0.00579833984375,-0.00640869140625,-0.00396728515625,-0.00335693359375,-0.0030517578125,0.00091552734375,0.00152587890625,0.014231567271053791,0.07421234250068665,0.019571533426642418,0.05520538240671158,0.03245849534869194,0.027733154594898224,0.014664001762866974,0.01912017911672592,0.03321228176355362,0.02144622802734375,0.030535278841853142
-0.00274658203125,-0.0048828125,-0.00335693359375,-0.0103759765625,-0.0067138671875,-0.00579833984375,-0.00335693359375,0.00030517578125,-0.00335693359375,-0.00244140625,-0.02471923828125,-0.00396728515625,-0.00244140625,-0.00213623046875,-0.00335693359375,0.0,0.006103515625,-0.00762939453125,-0.0006103515625,-0.018310546875,-0.00244140625,0.00030517578125,-0.01068115234375,-0.00396728515625,-0.0067138671875,-0.00823974609375,-0.00244140625,-0.01007080078125,-0.00335693359375,-0.0067138671875,-0.0067138671875,0.00213623046875,-0.001220703125,0.00091552734375,-0.0006103515625,-0.0067138671875,0.00030517578125,-0.0079345703125,-0.0018310546875,-0.00335693359375,0.020487671718001366,0.07558563351631165,0.029642334207892418,0.06176666170358658,0.03016967698931694,0.044670410454273224,0.032669372856616974,0.02827545255422592,0.02665100060403347,0.01198577880859375,-0.0062384032644331455
-0.00244140625,-0.00091552734375,-0.00885009765625,-0.00885009765625,-0.0054931640625,0.00274658203125,-0.0018310546875,-0.001220703125,0.00518798828125,-0.00396728515625,-0.01922607421875,-0.006103515625,-0.0030517578125,-0.0018310546875,-0.003662109375,-0.003662109375,-0.00152587890625,-0.00335693359375,-0.00091552734375,-0.0042724609375,-0.0042724609375,-0.00579833984375,-0.0042724609375,-0.00396728515625,-0.00823974609375,-0.00213623046875,0.00152587890625,-0.00030517578125,-0.00030517578125,-0.00732421875,-0.00457763671875,0.001220703125,-0.00030517578125,-0.00213623046875,-0.0079345703125,-0.00579833984375,-0.00457763671875,-0.00274658203125,-0.0067138671875,0.0048828125,0.054057005792856216,0.09984710812568665,0.019266357645392418,0.03887847810983658,0.03062744066119194,0.051384277641773224,0.022598572075366974,0.02140899747610092,0.04953918606042862,0.02800750732421875,0.04899841174483299
-0.001220703125,-0.0006103515625,-0.00091552734375,-0.01007080078125,-0.00885009765625,-0.0030517578125,0.00152587890625,0.00640869140625,0.00518798828125,0.0018310546875,-0.0311279296875,0.00213623046875,-0.00091552734375,-0.00701904296875,-0.003662109375,-0.0018310546875,-0.0054931640625,-0.00579833984375,0.0030517578125,0.0006103515625,-0.001220703125,0.0048828125,-0.00579833984375,-0.00640869140625,0.008544921875,-0.00396728515625,0.001220703125,-0.0048828125,-0.00396728515625,-0.00762939453125,-0.00885009765625,-0.00152587890625,0.00091552734375,-0.00213623046875,-0.00274658203125,-0.0030517578125,-0.0042724609375,-0.00701904296875,-0.00762939453125,0.0006103515625,0.044443968683481216,0.06520965695381165,0.024606933817267418,0.02499298006296158,0.02940673753619194,0.042686767876148224,0.022140808403491974,0.01820465177297592,0.03580627590417862,0.03289031982421875,0.030077515169978142
-0.0018310546875,-0.001220703125,0.00732421875,-0.009765625,-0.00518798828125,0.01068115234375,-0.00213623046875,-0.00335693359375,-0.03570556640625,-0.0213623046875,-0.03143310546875,-0.00213623046875,-0.0164794921875,-0.0177001953125,-0.00701904296875,-0.0164794921875,-0.00640869140625,-0.00640869140625,0.001220703125,-0.0030517578125,-0.0048828125,-0.00213623046875,-0.00885009765625,-0.0018310546875,-0.00091552734375,-0.00732421875,-0.0030517578125,-0.00762939453125,-0.0091552734375,-0.006103515625,-0.00762939453125,-0.00732421875,-0.003662109375,-0.00274658203125,-0.00244140625,-0.00091552734375,-0.00091552734375,-0.00640869140625,0.0,0.00091552734375,0.031473997980356216,0.12243011593818665,0.023691406473517418,0.01614288240671158,0.02116699144244194,0.041160888969898224,0.029159851372241974,0.05574127286672592,0.03778991848230362,0.04097747802734375,0.022295532748103142
-0.0018310546875,-0.00244140625,-0.00213623046875,-0.00732421875,-0.0048828125,0.00244140625,-0.0018310546875,-0.00335693359375,-0.02777099609375,-0.023193359375,-0.03173828125,-0.01556396484375,-0.020751953125,-0.0213623046875,-0.01678466796875,-0.0140380859375,0.001220703125,0.0018310546875,0.00030517578125,-0.0042724609375,-0.01190185546875,-0.00091552734375,-0.0067138671875,-0.00579833984375,-0.00213623046875,-0.008544921875,-0.00396728515625,-0.00396728515625,-0.006103515625,-0.00030517578125,-0.006103515625,-0.00274658203125,-0.0006103515625,0.0,0.00274658203125,-0.00244140625,-0.00274658203125,-0.0042724609375,-0.0048828125,-0.0054931640625,0.036814574152231216,0.08870819211006165,0.031168213114142418,0.012175598181784153,0.04497070237994194,0.032005615532398224,0.029922790825366974,0.04231353849172592,0.02665100060403347,0.02129364013671875,0.03312927111983299
-0.00274658203125,-0.00152587890625,0.00244140625,-0.00701904296875,-0.00457763671875,-0.01220703125,0.0,-0.0030517578125,-0.0103759765625,-0.01373291015625,-0.0274658203125,-0.01129150390625,-0.01129150390625,-0.01495361328125,-0.013427734375,-0.01220703125,-0.01678466796875,-0.00213623046875,-0.00885009765625,0.0006103515625,-0.00396728515625,-0.00335693359375,-0.00396728515625,-0.0018310546875,-0.00335693359375,0.00091552734375,-0.00335693359375,-0.00457763671875,-0.00244140625,-0.0042724609375,-0.00152587890625,0.00335693359375,-0.00335693359375,-0.003662109375,-0.00396728515625,-0.0091552734375,-0.0018310546875,-0.006103515625,-0.00213623046875,0.0018310546875,0.042155150324106216,0.10808685421943665,0.04215453937649727,0.011107482947409153,0.03825683519244194,0.046348877251148224,0.035110779106616974,0.02812286466360092,0.04480896145105362,0.02556610107421875,0.04014831408858299
-0.0042724609375,-0.00152587890625,-0.00396728515625,-0.008544921875,-0.00579833984375,-0.00244140625,0.0,-0.00335693359375,-0.0018310546875,-0.00152587890625,-0.0201416015625,-0.00274658203125,-0.00274658203125,0.00701904296875,-0.00030517578125,-0.0018310546875,-0.008544921875,-0.0018310546875,0.00335693359375,-0.0006103515625,-0.0048828125,-0.00152587890625,-0.00640869140625,0.0018310546875,0.00152587890625,-0.0018310546875,-0.0030517578125,-0.00274658203125,-0.0042724609375,-0.0018310546875,-0.00579833984375,-0.00518798828125,-0.00732421875,-0.00579833984375,0.003662109375,-0.00091552734375,-0.0006103515625,-0.00732421875,-0.006103515625,-0.001220703125,0.051310423761606216,0.12487152218818665,0.04810546711087227,0.01782134920358658,0.03551025316119194,0.012932129204273224,0.032059021294116974,-0.001021423377096653,0.02298889122903347,0.03456878662109375,0.024279175326228142
-0.0189208984375,-0.00274658203125,-0.0030517578125,0.00274658203125,-0.0048828125,-0.00213623046875,-0.001220703125,-0.00213623046875,-0.0018310546875,-0.01007080078125,-0.02044677734375,-0.003662109375,-0.00152587890625,-0.003662109375,-0.00274658203125,-0.00244140625,-0.00274658203125,-0.006103515625,-0.00335693359375,0.001220703125,-0.006103515625,0.00091552734375,0.0042724609375,-0.00823974609375,-0.00213623046875,0.0030517578125,-0.00213623046875,-0.00030517578125,-0.00518798828125,-0.00030517578125,-0.00701904296875,0.00457763671875,0.00213623046875,-0.00213623046875,0.00274658203125,0.0006103515625,-0.001220703125,-0.0140380859375,-0.0018310546875,0.00091552734375,0.028880005702376366,0.11571624875068665,0.03208373859524727,0.012023010291159153,0.04039306566119194,0.023002929985523224,0.032974548637866974,0.03147979825735092,0.02359924279153347,0.03350067138671875,0.03145080432295799
-0.003662109375,0.001220703125,-0.0006103515625,-0.010986328125,-0.0030517578125,-0.00335693359375,-0.00457763671875,0.0,-0.00274658203125,-0.003662109375,-0.0177001953125,-0.0030517578125,-0.00213623046875,-0.0006103515625,-0.00030517578125,-0.00396728515625,-0.0018310546875,0.00030517578125,-0.0006103515625,-0.0018310546875,-0.00091552734375,0.00091552734375,-0.00885009765625,-0.00396728515625,-0.00396728515625,-0.0042724609375,-0.00091552734375,-0.0048828125,-0.006103515625,-0.00579833984375,-0.009765625,0.0,-0.00457763671875,-0.00457763671875,-0.00518798828125,-0.0079345703125,-0.00213623046875,-0.00274658203125,-0.00457763671875,0.0042724609375,0.038035277277231216,0.08077362179756165,0.03696655109524727,0.02545074373483658,0.03444213792681694,0.033073730766773224,0.028854675590991974,0.01789947599172592,0.03168640285730362,0.02968597412109375,0.025042114779353142
0.0006103515625,-0.001220703125,-0.01708984375,-0.0103759765625,-0.00274658203125,-0.013427734375,-0.0006103515625,-0.0006103515625,-0.00213623046875,-0.00030517578125,-0.0201416015625,-0.001220703125,-0.001220703125,-0.00335693359375,0.00030517578125,-0.0048828125,0.00396728515625,0.0,-0.00457763671875,-0.010986328125,-0.0079345703125,-0.00396728515625,-0.00732421875,-0.001220703125,-0.00640869140625,-0.00457763671875,-0.0042724609375,-0.0006103515625,0.0,-0.0091552734375,-0.0048828125,0.00335693359375,0.0018310546875,0.00274658203125,-0.00091552734375,-0.02685546875,-0.0067138671875,-0.006103515625,0.018310546875,-0.00213623046875,0.059702757745981216,0.032250672578811646,0.03879760578274727,0.009429016150534153,0.02925414964556694,0.009117431938648224,0.042282409965991974,0.03529449552297592,0.03595886379480362,0.04219818115234375,0.023821411654353142
-0.01007080078125,-0.00030517578125,0.0,-0.01800537109375,-0.00396728515625,-0.00213623046875,-0.001220703125,0.00152587890625,-0.00335693359375,-0.0018310546875,-0.01556396484375,-0.0018310546875,-0.001220703125,0.0054931640625,0.00091552734375,-0.00335693359375,-0.00762939453125,-0.0079345703125,0.00030517578125,0.0,-0.00396728515625,-0.028076171875,-0.00823974609375,-0.006103515625,0.00213623046875,0.0,-0.00213623046875,-0.0067138671875,-0.00335693359375,0.001220703125,0.0,-0.0006103515625,-0.0054931640625,-0.00579833984375,0.00701904296875,0.001220703125,-0.00091552734375,-0.0274658203125,-0.0067138671875,-0.00274658203125,0.029337769374251366,0.007226257119327784,0.03254150226712227,0.014006652869284153,0.03612060472369194,0.029259033501148224,0.036941833794116974,0.03849884122610092,0.03397522121667862,0.04143524169921875,0.025957642123103142
-0.00274658203125,0.0146484375,0.0006103515625,-0.0103759765625,0.00091552734375,-0.00274658203125,-0.001220703125,-0.0079345703125,-0.00152587890625,-0.00396728515625,-0.02838134765625,-0.00213623046875,-0.00457763671875,-0.00213623046875,-0.0018310546875,-0.00274658203125,-0.00335693359375,-0.0152587890625,-0.00396728515625,-0.00335693359375,-0.00579833984375,-0.00579833984375,-0.01190185546875,-0.01495361328125,-0.003662109375,-0.00579833984375,-0.0054931640625,-0.01007080078125,-0.003662109375,-0.01495361328125,-0.00518798828125,0.0030517578125,0.00701904296875,0.0,0.00152587890625,-0.0048828125,0.00030517578125,-0.0042724609375,-0.006103515625,0.00274658203125,-0.015065307728946209,0.009972839616239071,0.026285400614142418,-0.001709899865090847,0.02238769456744194,0.035972900688648224,0.022293396294116974,0.03987213224172592,0.03901062160730362,0.04448699951171875,0.025499878451228142
-0.003662109375,-0.00396728515625,-0.0238037109375,-0.0091552734375,-0.00335693359375,0.0079345703125,0.0,-0.00274658203125,0.01800537109375,0.00030517578125,-0.0128173828125,0.01190185546875,-0.00030517578125,-0.00244140625,0.0091552734375,-0.00091552734375,-0.0048828125,0.0030517578125,0.001220703125,-0.00213623046875,-0.00732421875,0.001220703125,-0.0048828125,-0.01800537109375,0.001220703125,-0.00518798828125,-0.01220703125,-0.00244140625,-0.00946044921875,-0.0177001953125,-0.009765625,-0.0115966796875,0.00152587890625,-0.00732421875,-0.0048828125,-0.013427734375,-0.0048828125,-0.00701904296875,-0.00701904296875,0.00030517578125,-0.018880004063248634,0.014550476334989071,0.024454345926642418,-0.006134948693215847,0.04588622972369194,0.040703125298023224,0.012375183403491974,0.07054229825735092,0.03565368801355362,0.03762054443359375,0.03679138049483299
-0.003662109375,-0.0042724609375,0.0,-0.008544921875,-0.00457763671875,-0.0048828125,-0.0006103515625,-0.003662109375,-0.0238037109375,-0.0201416015625,-0.03143310546875,-0.0115966796875,-0.02410888671875,-0.018310546875,-0.02288818359375,-0.0213623046875,-0.0091552734375,-0.00732421875,-0.0006103515625,0.00152587890625,-0.003662109375,-0.00701904296875,-0.0091552734375,-0.00518798828125,-0.00518798828125,-0.00335693359375,-0.00396728515625,-0.00396728515625,-0.001220703125,-0.0091552734375,-0.00823974609375,-0.0042724609375,0.00579833984375,0.00152587890625,-0.00152587890625,-0.01556396484375,-0.0054931640625,-0.0067138671875,0.01861572265625,-0.0006103515625,0.002024536021053791,-0.024817200377583504,0.03818725422024727,-0.005219421349465847,0.03047485277056694,0.050773926079273224,0.015121765434741974,0.02919097989797592,0.02817687951028347,0.03777313232421875,0.03297668322920799
-0.003662109375,-0.00152587890625,-0.00274658203125,-0.010986328125,-0.00213623046875,-0.00274658203125,-0.00885009765625,-0.001220703125,-0.0225830078125,-0.01251220703125,-0.03509521484375,-0.0146484375,-0.0213623046875,-0.0238037109375,-0.02685546875,-0.01617431640625,-0.0079345703125,-0.0030517578125,-0.0067138671875,-0.00091552734375,-0.003662109375,-0.00457763671875,-0.01068115234375,-0.00091552734375,-0.00213623046875,-0.0018310546875,-0.00518798828125,-0.01708984375,-0.00030517578125,-0.00518798828125,-0.00823974609375,0.00030517578125,-0.00213623046875,-0.00274658203125,-0.006103515625,-0.008544921875,-0.00701904296875,-0.00396728515625,-0.0006103515625,-0.0006103515625,0.002024536021053791,-0.050757139921188354,0.03299926593899727,-0.004761657677590847,0.02788085862994194,0.030632324516773224,0.052658386528491974,0.02781768888235092,0.02207336388528347,0.03884124755859375,0.03999572619795799
-0.00396728515625,-0.00244140625,-0.0091552734375,-0.010986328125,-0.006103515625,-0.00274658203125,-0.0018310546875,-0.00213623046875,-0.028076171875,-0.01708984375,-0.02899169921875,-0.02685546875,-0.01312255859375,-0.0152587890625,-0.02410888671875,-0.01373291015625,0.0018310546875,-0.0042724609375,-0.01739501953125,-0.00579833984375,-0.00823974609375,-0.01861572265625,-0.006103515625,-0.00640869140625,0.00732421875,-0.008544921875,0.00091552734375,-0.0152587890625,-0.00335693359375,-0.00091552734375,-0.0067138671875,0.00091552734375,-0.0018310546875,-0.0079345703125,-0.00274658203125,-0.00885009765625,-0.006103515625,-0.00579833984375,-0.00396728515625,0.0030517578125,0.005686645396053791,-0.07181426882743835,0.03376220539212227,0.015227355994284153,0.03596801683306694,0.049095459282398224,0.037094421684741974,0.02964874356985092,0.03305969387292862,0.03289031982421875,0.030382690951228142
-0.0030517578125,-0.0018310546875,-0.00335693359375,-0.0091552734375,-0.00579833984375,-0.0030517578125,-0.00152587890625,0.003662109375,-0.00396728515625,-0.00274658203125,-0.03204345703125,-0.00335693359375,-0.0042724609375,0.0030517578125,-0.00091552734375,-0.00213623046875,-0.00885009765625,-0.0042724609375,-0.00701904296875,-0.009765625,-0.0067138671875,-0.0054931640625,-0.013427734375,-0.0048828125,-0.00518798828125,-0.006103515625,-0.0006103515625,-0.0048828125,-0.0054931640625,-0.00244140625,-0.006103515625,-0.003662109375,-0.003662109375,-0.00518798828125,-0.00579833984375,-0.00518798828125,-0.0042724609375,-0.00701904296875,-0.0048828125,-0.0042724609375,0.047495726495981216,-0.022070618346333504,0.03269409015774727,-0.006440124474465847,0.03062744066119194,0.035820312798023224,0.046402283012866974,0.03056427091360092,0.02909240685403347,0.05074310302734375,0.025805054232478142
-0.0152587890625,-0.00152587890625,-0.0018310546875,-0.025634765625,-0.0067138671875,-0.00396728515625,-0.01556396484375,-0.00091552734375,-0.0042724609375,-0.00274658203125,-0.0213623046875,-0.00457763671875,-0.00152587890625,-0.0018310546875,-0.0048828125,-0.0018310546875,-0.00518798828125,-0.00244140625,-0.00396728515625,-0.00152587890625,-0.0042724609375,-0.0030517578125,-0.01007080078125,-0.0091552734375,-0.00885009765625,-0.001220703125,-0.0018310546875,-0.0030517578125,-0.0006103515625,0.0030517578125,-0.00732421875,-0.00244140625,0.0067138671875,-0.00244140625,0.001220703125,-0.00335693359375,-0.00091552734375,-0.01068115234375,-0.00640869140625,0.0,0.032084349542856216,0.0018856811802834272,0.03864501789212227,0.013701477088034153,0.02025146409869194,0.021477051079273224,0.046554870903491974,0.03102203458547592,0.03687439113855362,0.01930999755859375,0.029161987826228142
-0.00335693359375,-0.0006103515625,-0.0079345703125,-0.0103759765625,-0.006103515625,0.0103759765625,-0.00335693359375,-0.00335693359375,-0.01312255859375,-0.0042724609375,-0.02044677734375,-0.00457763671875,-0.00213623046875,-0.0030517578125,-0.003662109375,-0.001220703125,-0.0042724609375,-0.01129150390625,-0.00823974609375,-0.01068115234375,0.0067138671875,-0.00457763671875,-0.010986328125,-0.00823974609375,-0.00335693359375,0.00152587890625,-0.00152587890625,-0.0067138671875,-0.00335693359375,-0.00244140625,-0.01251220703125,-0.00030517578125,-0.00457763671875,0.01220703125,0.00030517578125,-0.00274658203125,-0.00701904296875,-0.00762939453125,-0.0030517578125,0.0030517578125,0.060618285089731216,0.012719421647489071,0.03269409015774727,0.01949981600046158,0.03062744066119194,0.020256347954273224,0.053726501762866974,0.02018829435110092,0.03138122707605362,0.04158782958984375,0.03694396838545799
-0.00244140625,-0.001220703125,-0.0048828125,-0.0079345703125,-0.00579833984375,-0.003662109375,0.0,-0.001220703125,-0.0018310546875,0.00030517578125,-0.02044677734375,-0.00335693359375,-0.0042724609375,-0.0042724609375,0.0,-0.009765625,-0.0067138671875,-0.0091552734375,-0.006103515625,0.00244140625,-0.00396728515625,0.00030517578125,0.00701904296875,-0.0006103515625,0.00091552734375,-0.00213623046875,-0.00396728515625,-0.009765625,-0.01800537109375,-0.0079345703125,-0.0048828125,-0.01708984375,-0.00396728515625,-0.00213623046875,-0.00396728515625,-0.00152587890625,-0.00213623046875,-0.0054931640625,-0.00579833984375,-0.0042724609375,0.051463011652231216,0.010125427506864071,-0.016439208760857582,0.02102569490671158,0.03322143480181694,-0.011939696967601776,0.056625671684741974,0.03407379239797592,0.01581726036965847,0.02754974365234375,0.03785949572920799
-0.0225830078125,-0.00244140625,-0.00457763671875,-0.028076171875,-0.00762939453125,-0.00457763671875,-0.009765625,-0.00213623046875,-0.00640869140625,0.0115966796875,-0.0213623046875,-0.003662109375,-0.00244140625,-0.00396728515625,-0.0030517578125,-0.00701904296875,0.00244140625,-0.00152587890625,-0.0048828125,-0.00091552734375,-0.00335693359375,-0.00274658203125,-0.00396728515625,-0.00091552734375,-0.00030517578125,-0.00396728515625,-0.00396728515625,-0.00579833984375,-0.00823974609375,-0.003662109375,-0.01007080078125,-0.0079345703125,-0.0042724609375,-0.00152587890625,-0.00579833984375,-0.00457763671875,0.0006103515625,-0.0103759765625,-0.006103515625,0.00457763671875,0.030558472499251366,0.034539490938186646,-0.024373779073357582,0.03124908357858658,0.03352661058306694,0.029106445610523224,0.06868011504411697,0.03224273771047592,0.03748474270105362,0.01503753662109375,0.030993042513728142
-0.00396728515625,0.00152587890625,-0.00213623046875,-0.009765625,-0.01129150390625,-0.00152587890625,-0.001220703125,-0.00030517578125,-0.00335693359375,-0.00274658203125,-0.01129150390625,-0.0048828125,-0.0042724609375,0.0067138671875,-0.0018310546875,-0.00152587890625,-0.00701904296875,-0.006103515625,-0.00457763671875,-0.00579833984375,-0.00457763671875,-0.0079345703125,-0.006103515625,0.018310546875,-0.00030517578125,-0.00579833984375,-0.0042724609375,-0.00335693359375,-0.00396728515625,-0.003662109375,-0.00640869140625,0.00396728515625,0.0,-0.0030517578125,0.00091552734375,-0.0042724609375,-0.0048828125,-0.0115966796875,-0.001220703125,0.00396728515625,0.038035277277231216,0.060326844453811646,0.03574584797024727,0.03460601717233658,0.03673095628619194,0.027427978813648224,0.061508484184741974,0.011490783654153347,0.02161560021340847,0.00756072998046875,0.027330933138728142
-0.001220703125,-0.00213623046875,-0.001220703125,-0.0115966796875,-0.0042724609375,-0.0048828125,-0.003662109375,-0.0006103515625,-0.001220703125,0.0,-0.0152587890625,-0.010986328125,-0.00274658203125,-0.00335693359375,-0.01251220703125,-0.00274658203125,-0.0018310546875,-0.00091552734375,0.0006103515625,-0.0042724609375,-0.0006103515625,0.0,0.00030517578125,-0.00762939453125,-0.00457763671875,-0.0006103515625,0.00518798828125,-0.00701904296875,-0.00335693359375,-0.00244140625,-0.00762939453125,-0.006103515625,-0.003662109375,-0.00701904296875,-0.0048828125,-0.00732421875,0.00152587890625,-0.001220703125,-0.00457763671875,0.00732421875,0.048869017511606216,0.11922577023506165,0.028726806864142418,0.02331451326608658,0.03398437425494194,0.039177246391773224,0.049301452934741974,0.01728912442922592,0.0068145752884447575,0.01168060302734375,0.025499878451228142
-0.00152587890625,-0.00091552734375,-0.00213623046875,-0.0067138671875,-0.00335693359375,-0.00213623046875,-0.00946044921875,-0.00396728515625,-0.01861572265625,-0.0164794921875,-0.030517578125,-0.0115966796875,-0.0091552734375,-0.02044677734375,-0.0213623046875,-0.0164794921875,-0.00335693359375,0.00152587890625,-0.00701904296875,-0.0054931640625,-0.00457763671875,0.003662109375,0.0,-0.00396728515625,0.0,-0.00396728515625,-0.006103515625,-0.00762939453125,-0.00213623046875,0.00335693359375,-0.00518798828125,0.0006103515625,0.00732421875,0.00213623046875,-0.0054931640625,-0.00396728515625,-0.00701904296875,-0.0079345703125,-0.01373291015625,-0.0018310546875,0.053751830011606216,0.14257171750068665,0.021402588114142418,0.04437164217233658,0.03367919847369194,0.031090088188648224,0.047317810356616974,0.01820465177297592,0.02756652794778347,-0.00922393798828125,0.03160339221358299
-0.00274658203125,-0.0006103515625,0.003662109375,-0.008544921875,-0.00396728515625,0.0006103515625,-0.00091552734375,-0.0030517578125,-0.0164794921875,-0.02105712890625,-0.0335693359375,-0.00885009765625,-0.02197265625,-0.01922607421875,-0.020751953125,-0.01556396484375,-0.00396728515625,-0.00762939453125,-0.00640869140625,-0.0054931640625,-0.009765625,-0.00152587890625,-0.00701904296875,-0.009765625,0.00030517578125,-0.00732421875,0.0006103515625,0.00091552734375,-0.0030517578125,-0.0054931640625,0.00091552734375,-0.00213623046875,-0.00213623046875,-0.00030517578125,0.00091552734375,-0.0030517578125,-0.00335693359375,0.00030517578125,-0.00274658203125,-0.00732421875,0.06824768334627151,0.14165619015693665,0.04398559406399727,0.04040435701608658,0.012927246280014515,0.022850342094898224,0.039230652153491974,0.02186676114797592,0.02237853966653347,0.00878143310546875,0.025347290560603142
-0.00244140625,-0.00335693359375,0.0067138671875,-0.01007080078125,-0.0030517578125,-0.00732421875,-0.0006103515625,0.0006103515625,-0.0189208984375,-0.01434326171875,-0.0286865234375,0.00335693359375,-0.01312255859375,-0.01373291015625,-0.0189208984375,-0.01373291015625,-0.00823974609375,-0.0054931640625,-0.0018310546875,-0.0030517578125,-0.00518798828125,0.00396728515625,-0.00152587890625,-0.001220703125,-0.0091552734375,-0.00244140625,-0.0030517578125,-0.0250244140625,-0.0067138671875,-0.0030517578125,0.0054931640625,-0.00152587890625,0.001220703125,-0.00396728515625,0.00030517578125,-0.0079345703125,-0.00335693359375,-0.00396728515625,-0.0067138671875,-0.00152587890625,0.07908142358064651,0.12517669796943665,0.03391479328274727,0.04315093904733658,0.04451293870806694,0.035820312798023224,0.038925476372241974,0.02079864591360092,0.02955017052590847,-0.00205230712890625,0.030840454623103142
-0.00244140625,-0.0079345703125,-0.00030517578125,-0.0128173828125,-0.009765625,-0.0030517578125,-0.00030517578125,0.0,-0.00518798828125,-0.00335693359375,-0.0213623046875,-0.0042724609375,-0.0030517578125,-0.0030517578125,-0.00274658203125,-0.00335693359375,-0.00457763671875,-0.00213623046875,-0.006103515625,-0.00030517578125,-0.0018310546875,0.0,-0.020751953125,-0.009765625,-0.00274658203125,0.0006103515625,-0.00335693359375,-0.008544921875,-0.0048828125,-0.00457763671875,-0.00701904296875,-0.0054931640625,0.0042724609375,0.0006103515625,-0.00152587890625,-0.0091552734375,-0.0054931640625,-0.00335693359375,-0.0006103515625,0.00274658203125,0.060160521417856216,0.15111663937568665,0.025675049051642418,0.03170684725046158,0.004840088076889515,0.026817627251148224,0.025039978325366974,0.02903839200735092,0.03367004543542862,0.00206756591796875,0.020922241732478142
-0.003662109375,-0.00335693359375,-0.0018310546875,-0.0030517578125,-0.00213623046875,-0.0042724609375,-0.015869140625,-0.0018310546875,-0.0018310546875,0.00640869140625,-0.02044677734375,-0.00274658203125,-0.0018310546875,-0.0006103515625,-0.001220703125,-0.00030517578125,-0.00396728515625,-0.001220703125,-0.0054931640625,-0.0018310546875,0.00335693359375,0.00091552734375,-0.00946044921875,-0.013427734375,-0.0067138671875,-0.00396728515625,0.02105712890625,-0.00244140625,-0.00091552734375,-0.0048828125,-0.00579833984375,-0.00396728515625,-0.0018310546875,-0.00457763671875,0.00396728515625,0.00091552734375,-0.00244140625,-0.0054931640625,-0.00762939453125,0.00946044921875,0.008585815317928791,0.12716034054756165,0.027811279520392418,0.010039367713034153,0.03108520433306694,0.035667724907398224,0.018783874809741974,0.02369781583547592,0.02893981896340847,0.00695037841796875,0.03801208361983299
-0.00640869140625,-0.001220703125,0.0006103515625,0.00244140625,-0.0030517578125,-0.001220703125,-0.0067138671875,-0.00152587890625,-0.00274658203125,-0.00335693359375,-0.018310546875,-0.00274658203125,-0.00213623046875,-0.0030517578125,-0.0018310546875,-0.00335693359375,-0.00396728515625,-0.0067138671875,-0.0018310546875,-0.00030517578125,-0.01190185546875,-0.00274658203125,-0.0054931640625,-0.00579833984375,-0.006103515625,-0.00213623046875,-0.00732421875,-0.00640869140625,-0.0042724609375,-0.003662109375,-0.006103515625,-0.00396728515625,-0.006103515625,-0.003662109375,0.0,-0.00579833984375,0.0006103515625,-0.00396728515625,-0.00823974609375,0.0,-0.005147094838321209,0.12624481320381165,0.021555176004767418,0.03613189607858658,0.02406616136431694,0.042839355766773224,0.034958191215991974,0.02644439786672592,0.02207336388528347,0.01152801513671875,0.03953796252608299
-0.0128173828125,-0.0006103515625,-0.00091552734375,0.0018310546875,-0.0030517578125,-0.0042724609375,0.00274658203125,-0.00213623046875,-0.00335693359375,-0.0177001953125,-0.02166748046875,-0.00335693359375,0.00946044921875,-0.00244140625,-0.00091552734375,0.00091552734375,-0.00457763671875,0.0,-0.00518798828125,-0.00274658203125,-0.010986328125,-0.00335693359375,0.00091552734375,-0.006103515625,0.001220703125,0.00396728515625,-0.0006103515625,-0.00091552734375,0.003662109375,0.0006103515625,-0.00732421875,-0.01220703125,-0.0018310546875,-0.00579833984375,-0.00579833984375,-0.00518798828125,-0.00244140625,0.00579833984375,-0.00457763671875,0.00244140625,0.009959106333553791,0.12029388546943665,0.03650878742337227,0.02712921053171158,0.03718871995806694,0.039787597954273224,0.043197937309741974,0.02842804044485092,0.03092346154153347,-0.00418853759765625,0.03694396838545799
-0.0030517578125,-0.00335693359375,0.00091552734375,-0.006103515625,-0.01953125,-0.00213623046875,-0.00091552734375,0.00762939453125,-0.00091552734375,-0.00457763671875,-0.02197265625,-0.00091552734375,-0.0018310546875,-0.00244140625,-0.0042724609375,-0.00152587890625,-0.00457763671875,-0.00091552734375,-0.00152587890625,-0.00396728515625,-0.00335693359375,-0.00244140625,-0.0079345703125,-0.00457763671875,-0.00396728515625,0.0042724609375,0.0030517578125,-0.00335693359375,-0.00946044921875,-0.00640869140625,-0.00030517578125,0.0006103515625,-0.0030517578125,-0.006103515625,-0.0030517578125,-0.00274658203125,0.0,-0.008544921875,0.00274658203125,-0.0018310546875,0.055582884699106216,0.11983612179756165,0.023233642801642418,0.03872589021921158,0.07060547173023224,0.057792969048023224,0.034805603325366974,0.01988311856985092,0.03214416652917862,0.01869964599609375,0.027941284701228142
-0.00701904296875,-0.001220703125,-0.00335693359375,-0.0115966796875,-0.00518798828125,-0.00335693359375,0.01251220703125,-0.00244140625,-0.00457763671875,-0.0042724609375,-0.018310546875,-0.00457763671875,-0.00274658203125,-0.006103515625,-0.0018310546875,-0.001220703125,-0.00091552734375,-0.00091552734375,-0.00457763671875,-0.00946044921875,0.001220703125,-0.0030517578125,-0.001220703125,0.0,-0.00091552734375,-0.0079345703125,-0.00396728515625,-0.003662109375,0.00244140625,0.0,-0.0054931640625,-0.0048828125,-0.0048828125,0.00335693359375,0.00030517578125,-0.003662109375,-0.0164794921875,-0.0067138671875,-0.00518798828125,-0.003662109375,0.07160461694002151,0.16256073117256165,0.03360961750149727,0.03338531404733658,0.03108520433306694,0.045433349907398224,0.013443298637866974,0.02934356778860092,0.02741394005715847,0.04158782958984375,0.027941284701228142
-0.006103515625,-0.00213623046875,-0.0030517578125,-0.0091552734375,-0.0042724609375,-0.00030517578125,-0.00213623046875,-0.0006103515625,0.0006103515625,0.00274658203125,-0.0146484375,-0.001220703125,-0.00335693359375,-0.00396728515625,-0.00091552734375,-0.00213623046875,-0.00091552734375,-0.006103515625,-0.00152587890625,-0.00732421875,-0.0189208984375,-0.00030517578125,-0.00396728515625,-0.01953125,-0.0018310546875,-0.006103515625,-0.0146484375,-0.00213623046875,-0.008544921875,0.00640869140625,-0.01129150390625,-0.009765625,-0.0067138671875,-0.0067138671875,-0.00701904296875,-0.015869140625,-0.00701904296875,-0.00579833984375,-0.00396728515625,-0.00030517578125,0.034220580011606216,0.18270233273506165,0.027811279520392418,0.02606109529733658,0.01811523362994194,0.021782226860523224,0.023361511528491974,0.04811187833547592,0.03626403957605362,0.03823089599609375,0.029772339388728142
-0.0030517578125,-0.0042724609375,-0.00213623046875,-0.0115966796875,-0.0054931640625,-0.00213623046875,-0.00396728515625,-0.00152587890625,-0.0225830078125,-0.0225830078125,-0.03143310546875,-0.0140380859375,-0.0213623046875,-0.0201416015625,-0.02166748046875,-0.01556396484375,-0.0048828125,-0.00823974609375,-0.006103515625,-0.00396728515625,-0.00213623046875,-0.00579833984375,-0.0048828125,0.00152587890625,-0.00213623046875,-0.0042724609375,0.00152587890625,-0.003662109375,-0.0042724609375,0.001220703125,-0.0048828125,-0.00335693359375,-0.015869140625,-0.0048828125,-0.00518798828125,-0.01983642578125,-0.00396728515625,-0.00732421875,-0.0054931640625,-0.0006103515625,0.010722045786678791,0.13250091671943665,0.03727172687649727,0.03765777498483658,0.02162475511431694,0.025291748344898224,0.030227966606616974,0.05192657560110092,0.03016052208840847,0.03960418701171875,0.03557067736983299
-0.00396728515625,0.0079345703125,-0.0006103515625,-0.008544921875,-0.01922607421875,-0.00335693359375,-0.00335693359375,0.0054931640625,-0.02410888671875,-0.020751953125,-0.0347900390625,-0.0128173828125,-0.02227783203125,-0.0213623046875,-0.0238037109375,-0.0164794921875,-0.00640869140625,-0.00640869140625,-0.01434326171875,-0.00396728515625,-0.0042724609375,-0.001220703125,-0.00396728515625,-0.003662109375,-0.0006103515625,-0.00640869140625,-0.00213623046875,-0.00823974609375,-0.00457763671875,-0.0054931640625,-0.00518798828125,0.0,-0.006103515625,-0.00823974609375,0.00213623046875,-0.00396728515625,-0.00091552734375,-0.00640869140625,-0.0006103515625,-0.0006103515625,-0.06297790259122849,0.018517760559916496,0.011026611551642418,0.02499298006296158,0.0025512694846838713,0.016746826469898224,0.034042663872241974,0.05085846036672592,0.03168640285730362,0.05257415771484375,0.04030090197920799
-0.00274658203125,-0.001220703125,-0.0030517578125,-0.009765625,-0.0042724609375,-0.0018310546875,0.00030517578125,-0.0018310546875,-0.0189208984375,-0.00732421875,-0.03143310546875,-0.01129150390625,-0.0054931640625,-0.013427734375,-0.013427734375,-0.013427734375,-0.0018310546875,-0.00152587890625,-0.0054931640625,-0.0079345703125,0.0030517578125,0.0,-0.00396728515625,-0.0042724609375,-0.00030517578125,-0.00640869140625,-0.0048828125,-0.0048828125,-0.00274658203125,-0.0067138671875,-0.0067138671875,-0.00213623046875,-0.00244140625,0.00091552734375,-0.0018310546875,-0.006103515625,-0.01373291015625,-0.00732421875,-0.0048828125,0.00335693359375,-0.018574828281998634,-0.053351134061813354,0.015451660379767418,0.03338531404733658,0.04786987230181694,0.021019287407398224,0.021835632622241974,0.04002472013235092,0.03428039699792862,0.02129364013671875,0.03450256213545799
-0.00152587890625,-0.00396728515625,-0.0018310546875,-0.008544921875,-0.00396728515625,-0.00335693359375,-0.00213623046875,-0.00091552734375,-0.00457763671875,-0.0006103515625,-0.02166748046875,-0.0048828125,-0.001220703125,-0.0054931640625,-0.00335693359375,-0.00640869140625,-0.00152587890625,-0.003662109375,-0.00823974609375,0.0,-0.00732421875,-0.00885009765625,-0.00335693359375,-0.00946044921875,-0.0030517578125,-0.00518798828125,-0.00823974609375,-0.00640869140625,-0.00640869140625,-0.006103515625,-0.00335693359375,-0.00701904296875,-0.0054931640625,-0.0054931640625,0.00213623046875,-0.00244140625,0.00213623046875,-0.00457763671875,-0.0006103515625,-0.00152587890625,-0.019490355625748634,-0.10706207156181335,0.04795287922024727,0.03231719881296158,0.03383178636431694,-0.0003430175711400807,0.027786560356616974,0.04124542325735092,0.04267273098230362,0.06340789794921875,0.025805054232478142
-0.006103515625,-0.0006103515625,-0.00244140625,-0.01800537109375,-0.0048828125,-0.00396728515625,-0.0140380859375,-0.00091552734375,-0.006103515625,-0.00213623046875,-0.02044677734375,-0.00457763671875,0.00396728515625,-0.00274658203125,-0.0030517578125,0.00457763671875,-0.00579833984375,-0.00701904296875,-0.0006103515625,-0.00518798828125,-0.008544921875,-0.02105712890625,-0.0079345703125,-0.00396728515625,-0.0091552734375,-0.01007080078125,-0.00335693359375,0.00579833984375,-0.006103515625,-0.00518798828125,-0.02197265625,0.0,-0.00213623046875,-0.0140380859375,0.0,-0.00274658203125,0.02349853515625,-0.003662109375,-0.0018310546875,-0.00213623046875,-0.025288695469498634,-0.18152496218681335,0.03360961750149727,0.04345611482858658,0.03596801683306694,0.041008301079273224,0.028702087700366974,0.02812286466360092,0.03412780910730362,0.07653045654296875,0.03526550158858299
-0.003662109375,-0.01312255859375,-0.00457763671875,-0.009765625,-0.0048828125,-0.00244140625,-0.00274658203125,-0.00213623046875,-0.0048828125,-0.0030517578125,-0.0238037109375,0.00152587890625,-0.00396728515625,-0.00579833984375,0.003662109375,-0.00213623046875,-0.0067138671875,-0.00732421875,0.0006103515625,-0.00457763671875,0.0006103515625,-0.00244140625,-0.0054931640625,-0.00457763671875,-0.00213623046875,-0.0048828125,-0.0006103515625,-0.00762939453125,-0.0079345703125,-0.01129150390625,-0.0067138671875,0.003662109375,-0.00091552734375,-0.0048828125,-0.013427734375,-0.0079345703125,-0.0006103515625,-0.00152587890625,-0.00274658203125,-0.00152587890625,-0.011403198353946209,-0.19190093874931335,0.03650878742337227,0.04116729646921158,0.03779907152056694,0.041008301079273224,0.020920105278491974,0.05146881192922592,0.02436218224465847,0.05059051513671875,0.030077515169978142
-0.00213623046875,-0.00274658203125,-0.02044677734375,-0.01312255859375,-0.0054931640625,-0.00244140625,-0.00030517578125,-0.00396728515625,-0.00335693359375,0.00091552734375,-0.02105712890625,-0.0042724609375,0.0030517578125,-0.0042724609375,-0.00152587890625,0.00640869140625,-0.00579833984375,0.00091552734375,-0.0006103515625,-0.00091552734375,0.0042724609375,-0.0067138671875,-0.008544921875,0.01556396484375,-0.00274658203125,-0.00885009765625,-0.0091552734375,-0.0048828125,-0.0018310546875,-0.00091552734375,-0.00946044921875,-0.0042724609375,-0.006103515625,0.00518798828125,0.00274658203125,-0.0006103515625,-0.02197265625,-0.008544921875,-0.0030517578125,0.0079345703125,0.019419556483626366,-0.19296905398368835,0.018961181864142418,0.03246978670358658,0.02727050706744194,0.031853027641773224,0.024734802544116974,0.03956695646047592,0.02298889122903347,0.08049774169921875,0.0013909912668168545
-0.0042724609375,-0.00030517578125,-0.0018310546875,-0.013427734375,-0.00457763671875,-0.00396728515625,0.0006103515625,-0.00701904296875,-0.0018310546875,-0.0030517578125,-0.02197265625,-0.00274658203125,-0.00457763671875,-0.00274658203125,-0.00335693359375,-0.00274658203125,-0.0067138671875,-0.0030517578125,-0.0079345703125,-0.00518798828125,-0.00732421875,-0.00091552734375,-0.0030517578125,-0.00640869140625,-0.0006103515625,-0.00335693359375,-0.00274658203125,-0.001220703125,-0.00579833984375,-0.00732421875,-0.00823974609375,-0.008544921875,-0.0048828125,-0.00701904296875,-0.0042724609375,-0.009765625,-0.00640869140625,-0.0042724609375,0.0054931640625,-0.00213623046875,0.048411253839731216,-0.17526885867118835,0.03757690265774727,0.05184844881296158,0.02894897386431694,0.031547851860523224,0.0016940308269113302,0.03285308927297592,0.03611145168542862,0.07317352294921875,-0.0068487548269331455
-0.00335693359375,-0.0030517578125,-0.00579833984375,-0.009765625,-0.0048828125,-0.00213623046875,-0.00274658203125,-0.00335693359375,0.00213623046875,-0.0030517578125,-0.01983642578125,0.00091552734375,-0.00244140625,-0.00091552734375,-0.00579833984375,-0.00091552734375,0.00091552734375,-0.00396728515625,-0.001220703125,-0.0006103515625,-0.00946044921875,-0.00152587890625,-0.00518798828125,-0.00732421875,-0.001220703125,-0.00335693359375,-0.0054931640625,-0.00091552734375,-0.0006103515625,-0.00030517578125,-0.0018310546875,-0.00274658203125,0.00457763671875,0.001220703125,-0.00030517578125,-0.00457763671875,-0.001220703125,-0.00640869140625,-0.00640869140625,0.00152587890625,0.004771118052303791,-0.14765045046806335,0.029642334207892418,0.04086212068796158,0.01964111253619194,0.034752197563648224,0.038315124809741974,0.04551788419485092,0.04023132473230362,0.06783294677734375,0.030687866732478142
-0.00030517578125,-0.00244140625,0.0030517578125,-0.0091552734375,-0.0042724609375,-0.00030517578125,-0.0030517578125,-0.00091552734375,0.0128173828125,0.00274658203125,-0.01495361328125,-0.00335693359375,-0.0018310546875,-0.00518798828125,-0.0140380859375,-0.001220703125,-0.00213623046875,-0.00213623046875,-0.00640869140625,-0.0054931640625,-0.00274658203125,0.00152587890625,-0.001220703125,0.001220703125,-0.0048828125,-0.006103515625,-0.009765625,-0.0042724609375,0.00396728515625,-0.0067138671875,-0.0067138671875,0.003662109375,-0.00335693359375,-0.00244140625,0.00457763671875,-0.00213623046875,0.00091552734375,-0.00335693359375,0.00091552734375,0.00030517578125,0.0018719482468441129,-0.08661529421806335,0.04093383625149727,0.04025176912546158,0.02803344652056694,0.047264404594898224,0.035263366997241974,0.03193756192922592,0.02298889122903347,0.05852508544921875,0.04167419299483299
-0.0018310546875,0.00030517578125,0.00152587890625,-0.0091552734375,-0.0048828125,-0.00732421875,-0.0018310546875,-0.00396728515625,-0.01373291015625,-0.02044677734375,-0.02899169921875,-0.01953125,-0.018310546875,-0.0189208984375,-0.01953125,-0.01220703125,-0.00244140625,-0.00396728515625,-0.006103515625,-0.00335693359375,-0.00701904296875,-0.00396728515625,-0.0091552734375,0.001220703125,0.00213623046875,-0.003662109375,-0.01312255859375,-0.00518798828125,-0.003662109375,0.00030517578125,-0.003662109375,-0.00244140625,-0.00396728515625,-0.001220703125,0.00274658203125,-0.0042724609375,0.00213623046875,-0.0006103515625,0.00030517578125,0.0067138671875,0.004008178599178791,-0.030310364440083504,0.015604248270392418,0.02300933748483658,0.03016967698931694,0.07198364287614822,0.037247009575366974,0.02415557950735092,0.05167541652917862,0.05455780029296875,0.03572326526045799
-0.0018310546875,0.01220703125,-0.00244140625,-0.0103759765625,0.003662109375,-0.00244140625,0.00030517578125,0.00823974609375,-0.02105712890625,-0.0213623046875,-0.0347900390625,-0.01251220703125,-0.0189208984375,-0.0213623046875,-0.02288818359375,-0.0164794921875,-0.00091552734375,-0.006103515625,-0.00335693359375,-0.0067138671875,-0.01068115234375,-0.00335693359375,-0.006103515625,-0.003662109375,0.0,0.0018310546875,0.0006103515625,-0.00213623046875,-0.00030517578125,-0.001220703125,-0.0054931640625,-0.00335693359375,-0.00396728515625,-0.00579833984375,-0.006103515625,-0.00335693359375,0.003662109375,-0.00579833984375,-0.0030517578125,-0.00457763671875,0.018198853358626366,-0.052130430936813354,0.03299926593899727,0.02865508943796158,0.03718871995806694,0.037041015923023224,0.034500427544116974,0.04811187833547592,0.03550110012292862,0.04753875732421875,0.029161987826228142
-0.00274658203125,-0.00579833984375,0.00030517578125,-0.008544921875,-0.00579833984375,-0.0030517578125,-0.00030517578125,0.00579833984375,-0.01617431640625,-0.0152587890625,-0.03173828125,-0.01190185546875,-0.01068115234375,-0.0115966796875,-0.0140380859375,-0.0115966796875,-0.001220703125,-0.00640869140625,-0.00885009765625,-0.00244140625,-0.0054931640625,0.01617431640625,-0.00335693359375,-0.003662109375,0.0225830078125,0.00030517578125,0.0006103515625,0.0238037109375,-0.0018310546875,0.00213623046875,-0.0091552734375,-0.0006103515625,0.00030517578125,-0.013427734375,0.00030517578125,-0.0006103515625,0.0067138671875,-0.003662109375,-0.00213623046875,0.0128173828125,0.047190550714731216,-0.055639952421188354,0.03833984211087227,0.02468780428171158,0.03276367112994194,0.043907471001148224,0.029007263481616974,0.02476593106985092,0.02253112755715847,0.03990936279296875,0.024126587435603142
-0.0018310546875,-0.00152587890625,0.0,-0.01068115234375,-0.00579833984375,-0.00274658203125,-0.00091552734375,0.00030517578125,-0.00152587890625,0.0006103515625,-0.0189208984375,-0.00518798828125,0.0018310546875,-0.0030517578125,-0.00274658203125,0.0018310546875,-0.0067138671875,-0.0079345703125,-0.003662109375,0.00213623046875,0.00091552734375,0.0006103515625,0.0030517578125,0.00091552734375,-0.00396728515625,-0.02899169921875,-0.00823974609375,-0.00701904296875,-0.01129150390625,-0.00152587890625,-0.00396728515625,-0.00152587890625,-0.0030517578125,-0.00762939453125,-0.0042724609375,-0.00396728515625,0.0030517578125,0.0,-0.0042724609375,0.00274658203125,0.050089720636606216,-0.045263975858688354,0.026895752176642418,0.03155425935983658,0.03428955003619194,0.040397949516773224,0.020157165825366974,0.02903839200735092,0.04297790676355362,0.02312469482421875,0.020311890169978142
-0.0030517578125,-0.00579833984375,-0.00030517578125,-0.00885009765625,0.00244140625,-0.00152587890625,0.001220703125,0.008544921875,-0.00274658203125,-0.00030517578125,-0.0189208984375,-0.0048828125,-0.0018310546875,-0.0018310546875,-0.0048828125,-0.00091552734375,0.003662109375,0.00152587890625,0.0018310546875,-0.009765625,-0.0091552734375,-0.00244140625,-0.001220703125,-0.006103515625,-0.0018310546875,-0.00640869140625,-0.00823974609375,-0.0048828125,-0.006103515625,0.0042724609375,-0.001220703125,-0.003662109375,-0.01007080078125,-0.00335693359375,0.0018310546875,-0.00030517578125,-0.00091552734375,-0.0067138671875,-0.00335693359375,-0.0042724609375,0.036814574152231216,-0.031378477811813354,0.04062866047024727,0.02209381014108658,0.006060791201889515,0.015678711235523224,0.022140808403491974,0.03971954435110092,0.03962097316980362,0.03746795654296875,0.019091187044978142
-0.00396728515625,0.0018310546875,-0.0018310546875,-0.00579833984375,-0.00244140625,-0.0018310546875,0.00030517578125,-0.0018310546875,0.0018310546875,-0.00152587890625,-0.02105712890625,-0.01190185546875,-0.00274658203125,-0.0030517578125,-0.018310546875,-0.0006103515625,0.0,-0.0048828125,-0.0177001953125,-0.00396728515625,-0.00701904296875,0.0103759765625,-0.0048828125,-0.0018310546875,-0.00030517578125,-0.00091552734375,-0.00335693359375,-0.00579833984375,-0.00518798828125,-0.00457763671875,-0.00885009765625,-0.00640869140625,0.0006103515625,-0.0018310546875,-0.0018310546875,-0.00396728515625,-0.003662109375,-0.00518798828125,-0.00762939453125,0.00396728515625,0.033762816339731216,-0.06449005007743835,0.024149170145392418,0.02300933748483658,0.02574462816119194,0.012169189751148224,0.019241638481616974,0.03300567716360092,0.03412780910730362,0.04631805419921875,0.024279175326228142
0.001220703125,-0.001220703125,-0.00091552734375,-0.00396728515625,-0.0042724609375,-0.00244140625,0.0006103515625,-0.0006103515625,-0.003662109375,0.003662109375,-0.01983642578125,-0.003662109375,0.00213623046875,-0.0006103515625,-0.00274658203125,-0.001220703125,-0.00701904296875,-0.0030517578125,-0.00091552734375,-0.003662109375,-0.00640869140625,-0.00152587890625,0.00396728515625,-0.01983642578125,-0.00091552734375,0.0,0.00762939453125,-0.00732421875,-0.003662109375,-0.01495361328125,-0.00885009765625,-0.00701904296875,-0.023193359375,-0.00762939453125,-0.0048828125,0.00274658203125,-0.0042724609375,-0.00518798828125,-0.01556396484375,-0.00091552734375,0.025980835780501366,0.024621276184916496,0.028726806864142418,0.03018096834421158,0.02421874925494194,0.021629638969898224,0.050522156059741974,0.03895660489797592,0.04343567043542862,0.03731536865234375,0.03801208361983299
0.00640869140625,-0.0042724609375,0.00091552734375,-0.008544921875,-0.00213623046875,-0.00091552734375,-0.00579833984375,-0.00152587890625,-0.0030517578125,-0.00152587890625,-0.023193359375,-0.00213623046875,-0.00274658203125,0.0006103515625,-0.0006103515625,-0.001220703125,-0.00274658203125,-0.0006103515625,-0.0067138671875,-0.010986328125,-0.0054931640625,-0.00274658203125,-0.00274658203125,-0.0018310546875,0.001220703125,-0.00244140625,-0.00396728515625,-0.00518798828125,-0.003662109375,-0.0018310546875,-0.00885009765625,-0.00213623046875,0.00640869140625,0.0030517578125,0.001220703125,-0.01495361328125,-0.00213623046875,-0.0091552734375,-0.006103515625,-0.0048828125,0.011790161021053791,0.032403260469436646,0.023996582254767418,0.03323272615671158,0.02574462816119194,0.029259033501148224,0.045334167778491974,0.03117462247610092,0.02802429161965847,0.01976776123046875,0.03709655627608299
-0.0042724609375,-0.00396728515625,0.00030517578125,-0.00823974609375,-0.00518798828125,-0.00457763671875,-0.0006103515625,-0.00213623046875,-0.003662109375,-0.00274658203125,-0.0238037109375,-0.00244140625,-0.00213623046875,-0.0146484375,-0.00091552734375,-0.0006103515625,-0.00335693359375,-0.0067138671875,0.015869140625,-0.00244140625,-0.00579833984375,-0.00396728515625,-0.00823974609375,-0.00030517578125,0.0006103515625,0.00030517578125,-0.00274658203125,0.00091552734375,0.0018310546875,-0.0067138671875,-0.00885009765625,0.00030517578125,-0.003662109375,-0.00823974609375,-0.0048828125,-0.0067138671875,-0.006103515625,-0.00640869140625,0.0006103515625,0.0048828125,-0.002095337025821209,-0.010016174055635929,0.026132812723517418,0.03979400545358658,0.04832763597369194,0.046806640923023224,0.048080749809741974,0.05574127286672592,0.03031310997903347,0.01473236083984375,0.018633423373103142
-0.00457763671875,-0.003662109375,-0.00274658203125,-0.00885009765625,-0.00335693359375,-0.00640869140625,0.00091552734375,-0.00152587890625,0.01068115234375,0.00274658203125,-0.0140380859375,-0.0042724609375,-0.00244140625,-0.00244140625,-0.0067138671875,0.00091552734375,-0.0030517578125,0.0,-0.00518798828125,-0.0030517578125,-0.01129150390625,-0.00244140625,0.00396728515625,-0.00457763671875,0.00244140625,0.00579833984375,0.0030517578125,-0.00579833984375,-0.02899169921875,-0.00885009765625,-0.0067138671875,-0.00457763671875,-0.00396728515625,-0.0030517578125,-0.0042724609375,-0.00335693359375,-0.003662109375,-0.00274658203125,-0.00213623046875,-0.00762939453125,0.031016236171126366,-0.022833557799458504,0.03254150226712227,0.03277496248483658,0.02727050706744194,0.019645996391773224,0.048691101372241974,0.03010650724172592,0.0037628174759447575,0.01122283935546875,0.020769653841853142
-0.00396728515625,-0.00732421875,-0.0018310546875,-0.009765625,-0.00518798828125,-0.00091552734375,-0.00152587890625,-0.00335693359375,-0.0213623046875,-0.0201416015625,-0.032958984375,-0.01373291015625,-0.01922607421875,-0.0201416015625,-0.0244140625,-0.01556396484375,-0.00579833984375,-0.0030517578125,-0.00732421875,-0.0042724609375,-0.00579833984375,-0.00396728515625,0.0140380859375,-0.00823974609375,0.0006103515625,-0.02105712890625,-0.0054931640625,-0.0018310546875,-0.02197265625,-0.00274658203125,-0.0018310546875,-0.003662109375,-0.0018310546875,-0.00244140625,0.0079345703125,-0.00762939453125,-0.0042724609375,-0.01312255859375,-0.00732421875,-0.00274658203125,0.018809204921126366,-0.034887999296188354,0.03895019367337227,0.03567413240671158,0.03337402269244194,0.032921142876148224,0.047775574028491974,0.03666778653860092,0.03122863732278347,0.02175140380859375,0.024279175326228142
-0.00335693359375,-0.01434326171875,-0.0006103515625,-0.0067138671875,0.00946044921875,-0.001220703125,-0.001220703125,-0.00579833984375,-0.02227783203125,-0.0225830078125,-0.03387451171875,-0.01434326171875,-0.023193359375,-0.02197265625,-0.02410888671875,-0.01678466796875,-0.00946044921875,-0.0286865234375,-0.00762939453125,-0.00213623046875,0.00885009765625,-0.00274658203125,-0.00213623046875,0.01617431640625,0.0,-0.00457763671875,-0.0054931640625,-0.0048828125,-0.01068115234375,-0.00457763671875,-0.006103515625,-0.00640869140625,-0.00030517578125,-0.0054931640625,-0.00030517578125,-0.0018310546875,-0.00396728515625,-0.00457763671875,-0.00823974609375,0.0,0.030100708827376366,-0.022070618346333504,0.03483032062649727,0.03369048982858658,0.02772827073931694,0.026665039360523224,0.041366882622241974,0.03407379239797592,0.03153381496667862,0.01900482177734375,0.03297668322920799
0.00244140625,-0.00274658203125,-0.0030517578125,-0.00396728515625,-0.006103515625,-0.00213623046875,-0.00091552734375,-0.0030517578125,-0.0189208984375,-0.01617431640625,-0.0274658203125,-0.0115966796875,-0.01312255859375,-0.0164794921875,-0.0152587890625,-0.0140380859375,0.00030517578125,-0.0048828125,-0.0048828125,-0.00823974609375,-0.00823974609375,0.001220703125,-0.00579833984375,-0.0091552734375,0.0018310546875,-0.0054931640625,-0.0018310546875,-0.0054931640625,-0.00457763671875,-0.001220703125,-0.00091552734375,-0.00244140625,-0.00518798828125,-0.0048828125,0.0048828125,-0.00030517578125,-0.00335693359375,0.00396728515625,-0.003662109375,0.00030517578125,0.028422242030501366,-0.005133362021297216,0.03971313312649727,0.03445342928171158,0.02101440355181694,0.029564209282398224,0.038620300590991974,0.02659698575735092,0.03275451809167862,0.03197479248046875,0.027788696810603142
-0.003662109375,-0.00030517578125,-0.00457763671875,-0.0091552734375,-0.00518798828125,-0.020751953125,-0.00152587890625,-0.0054931640625,0.00152587890625,-0.00213623046875,-0.0213623046875,-0.00244140625,-0.00030517578125,-0.0030517578125,-0.00274658203125,-0.0048828125,0.00457763671875,-0.0006103515625,-0.0048828125,-0.03082275390625,-0.010986328125,-0.006103515625,-0.01678466796875,-0.00579833984375,0.00274658203125,-0.00518798828125,-0.0042724609375,-0.008544921875,-0.00885009765625,-0.00274658203125,-0.00213623046875,-0.00030517578125,-0.00457763671875,-0.00732421875,-0.001220703125,-0.0006103515625,-0.00396728515625,-0.00274658203125,0.0042724609375,0.0018310546875,0.044596556574106216,-0.008032531477510929,0.016519775614142418,0.02484039217233658,0.02101440355181694,0.036583252251148224,0.038620300590991974,0.02034088224172592,0.05198059231042862,0.03670501708984375,0.030382690951228142
0.0018310546875,-0.003662109375,-0.0048828125,-0.008544921875,-0.00518798828125,-0.0054931640625,-0.00396728515625,-0.00274658203125,-0.0042724609375,-0.00152587890625,-0.0213623046875,-0.00518798828125,0.00030517578125,-0.003662109375,-0.00091552734375,-0.0091552734375,0.00030517578125,-0.00885009765625,-0.01251220703125,-0.00335693359375,-0.0128173828125,-0.02410888671875,-0.00457763671875,-0.0079345703125,-0.01068115234375,-0.00457763671875,-0.00579833984375,-0.00457763671875,0.0006103515625,-0.003662109375,0.00396728515625,0.00396728515625,0.0,-0.006103515625,0.0042724609375,-0.006103515625,-0.006103515625,-0.0018310546875,-0.00823974609375,-0.01556396484375,0.051920775324106216,-0.0008609008509665728,0.024912109598517418,0.03109649568796158,0.02406616136431694,0.059471435844898224,0.043350525200366974,0.03590484708547592,0.03214416652917862,0.03334808349609375,0.027636108919978142
-0.0042724609375,-0.00396728515625,-0.0018310546875,-0.00885009765625,-0.0048828125,-0.00152587890625,-0.00335693359375,-0.00335693359375,-0.0042724609375,-0.00518798828125,-0.02166748046875,-0.00396728515625,0.0006103515625,-0.0048828125,-0.00213623046875,-0.0030517578125,-0.00091552734375,-0.00640869140625,-0.00457763671875,-0.00579833984375,-0.01007080078125,-0.01190185546875,-0.0048828125,-0.00457763671875,0.01007080078125,-0.0079345703125,-0.0006103515625,0.00396728515625,-0.0048828125,-0.00579833984375,-0.00946044921875,-0.0048828125,-0.00579833984375,-0.0048828125,-0.001220703125,-0.0067138671875,-0.00244140625,-0.0030517578125,0.0006103515625,0.003662109375,0.033305052667856216,0.017144469544291496,0.03513549640774727,0.02834991365671158,0.03184814378619194,0.045280762016773224,0.043503113090991974,0.04017730802297592,0.0075775147415697575,0.00817108154296875,0.029619751498103142
-0.0091552734375,-0.001220703125,-0.00457763671875,-0.009765625,-0.00762939453125,-0.0048828125,0.0,-0.0018310546875,-0.0018310546875,-0.00274658203125,-0.0213623046875,-0.00457763671875,-0.00152587890625,-0.00823974609375,-0.001220703125,-0.00396728515625,-0.0018310546875,-0.001220703125,-0.00396728515625,-0.01007080078125,-0.008544921875,-0.006103515625,-0.0042724609375,-0.00579833984375,-0.0030517578125,-0.0067138671875,-0.00152587890625,-0.01556396484375,-0.00396728515625,-0.00579833984375,-0.01190185546875,-0.0006103515625,0.0,-0.00152587890625,-0.00457763671875,-0.0054931640625,-0.001220703125,-0.0103759765625,-0.0091552734375,-0.0067138671875,0.041239622980356216,0.046136170625686646,0.04184936359524727,0.02560333162546158,0.02833862230181694,0.035820312798023224,0.037704773247241974,0.03147979825735092,0.04221496731042862,0.01534271240234375,0.029161987826228142
-0.00244140625,-0.00518798828125,-0.00579833984375,-0.00885009765625,-0.00518798828125,-0.01678466796875,-0.00396728515625,-0.00274658203125,-0.0128173828125,-0.0048828125,-0.02197265625,-0.003662109375,-0.00579833984375,-0.00518798828125,-0.0030517578125,0.0018310546875,0.0048828125,-0.00640869140625,-0.0091552734375,-0.01251220703125,-0.006103515625,-0.0042724609375,-0.0067138671875,-0.01129150390625,-0.006103515625,-0.00518798828125,-0.0042724609375,-0.00091552734375,-0.00732421875,-0.003662109375,-0.00732421875,-0.0054931640625,0.001220703125,0.0006103515625,-0.001220703125,-0.015869140625,-0.00579833984375,-0.0030517578125,0.01373291015625,-0.00335693359375,0.026438599452376366,0.06795623898506165,0.03635619953274727,0.03918365389108658,0.03230590745806694,-0.015144042670726776,0.039535827934741974,0.02613922208547592,0.05350647121667862,0.01519012451171875,0.018633423373103142
-0.00213623046875,0.00762939453125,0.00091552734375,-0.0115966796875,-0.020751953125,-0.00244140625,-0.0030517578125,0.01220703125,-0.00274658203125,-0.003662109375,-0.02685546875,-0.00457763671875,-0.00274658203125,0.00579833984375,-0.001220703125,-0.0030517578125,-0.0042724609375,-0.00579833984375,-0.00946044921875,-0.00518798828125,-0.00579833984375,-0.00274658203125,-0.00213623046875,-0.0067138671875,-0.0030517578125,-0.00274658203125,-0.0030517578125,0.00213623046875,-0.00213623046875,-0.0006103515625,0.00244140625,-0.0030517578125,0.00030517578125,0.00091552734375,-0.00274658203125,-0.00244140625,0.0006103515625,-0.00213623046875,-0.00579833984375,-0.00335693359375,-0.006215210072696209,0.052239686250686646,0.027658691629767418,0.04925445467233658,0.02315063402056694,0.028953857719898224,0.061355896294116974,0.01850982755422592,0.02466735802590847,0.01183319091796875,0.023821411654353142
0.0,-0.00885009765625,0.00030517578125,-0.0067138671875,-0.0091552734375,-0.001220703125,-0.00244140625,0.00518798828125,0.00335693359375,0.00244140625,-0.0067138671875,0.003662109375,-0.00030517578125,0.0048828125,-0.00213623046875,-0.00030517578125,0.0048828125,-0.0042724609375,-0.00396728515625,-0.0152587890625,-0.00274658203125,0.0018310546875,0.00244140625,-0.003662109375,0.00213623046875,-0.00396728515625,0.0,-0.00244140625,-0.0079345703125,-0.0018310546875,-0.00762939453125,-0.0054931640625,-0.00091552734375,-0.0091552734375,-0.00579833984375,-0.00213623046875,-0.003662109375,0.00091552734375,-0.006103515625,0.00274658203125,0.026743775233626366,0.051934510469436646,0.030100097879767418,0.005766906775534153,0.02162475511431694,0.030632324516773224,0.060745544731616974,0.014084777794778347,0.03977356106042862,0.03792572021484375,0.04655700549483299
0.0091552734375,-0.0030517578125,-0.00152587890625,-0.0177001953125,-0.006103515625,-0.0042724609375,-0.001220703125,0.00030517578125,-0.02044677734375,-0.018310546875,-0.03265380859375,-0.0103759765625,-0.01861572265625,-0.01617431640625,-0.01953125,-0.01373291015625,-0.00579833984375,0.0006103515625,-0.00152587890625,-0.00335693359375,-0.00640869140625,-0.00091552734375,-0.006103515625,-0.0018310546875,-0.00030517578125,-0.00335693359375,-0.00335693359375,-0.0006103515625,0.00030517578125,0.00244140625,-0.01678466796875,0.0006103515625,-0.00640869140625,0.0030517578125,-0.00213623046875,0.00091552734375,-0.00213623046875,-0.00640869140625,-0.00732421875,0.00213623046875,0.053904417902231216,0.051324158906936646,0.025675049051642418,0.05383209139108658,0.02284545823931694,0.024833984673023224,0.036484070122241974,0.03270050138235092,0.02955017052590847,0.02510833740234375,0.026415405794978142
-0.0006103515625,-0.00396728515625,0.00213623046875,-0.009765625,-0.0048828125,-0.00457763671875,-0.0006103515625,-0.00274658203125,-0.01708984375,-0.0189208984375,-0.0335693359375,-0.00518798828125,-0.0201416015625,-0.01953125,-0.0250244140625,-0.01495361328125,0.00213623046875,-0.00518798828125,-0.010986328125,-0.0140380859375,-0.0067138671875,-0.003662109375,-0.00518798828125,-0.008544921875,-0.0030517578125,-0.00152587890625,-0.006103515625,-0.0018310546875,-0.00579833984375,0.00396728515625,-0.003662109375,0.00030517578125,0.00732421875,-0.0006103515625,-0.0030517578125,-0.00274658203125,-0.00732421875,-0.00091552734375,-0.0006103515625,0.00091552734375,0.033457640558481216,0.039422303438186646,0.020792236551642418,0.01995757967233658,0.01842040941119194,0.019188232719898224,0.042129822075366974,0.04170318692922592,0.04404602199792862,0.02266693115234375,0.030077515169978142
-0.00091552734375,-0.0018310546875,0.00946044921875,-0.0103759765625,-0.00213623046875,0.0079345703125,-0.001220703125,-0.00213623046875,-0.03326416015625,-0.01556396484375,-0.02838134765625,-0.001220703125,-0.01251220703125,-0.01007080078125,-0.02777099609375,-0.010986328125,-0.00518798828125,-0.0048828125,-0.00457763671875,-0.00579833984375,-0.00732421875,0.0018310546875,-0.0067138671875,-0.00335693359375,0.0067138671875,-0.00030517578125,-0.00244140625,0.00030517578125,0.0,0.00091552734375,0.0018310546875,0.001220703125,-0.001220703125,-0.00946044921875,0.00152587890625,-0.00244140625,-0.01800537109375,-0.00335693359375,-0.00885009765625,-0.00823974609375,0.033762816339731216,0.023400573059916496,0.030252685770392418,0.04513458162546158,0.03551025316119194,0.013542480766773224,0.036026306450366974,0.02842804044485092,0.03763733059167862,0.02907562255859375,0.023516235873103142
-0.001220703125,-0.0018310546875,-0.00091552734375,-0.003662109375,-0.003662109375,-0.0018310546875,0.0030517578125,-0.00152587890625,-0.00396728515625,0.0018310546875,-0.01983642578125,-0.0018310546875,0.001220703125,-0.00213623046875,-0.00152587890625,0.001220703125,-0.00213623046875,-0.00091552734375,-0.00396728515625,0.0006103515625,-0.0054931640625,-0.00335693359375,0.003662109375,-0.0030517578125,-0.00091552734375,-0.00396728515625,-0.00457763671875,-0.0048828125,-0.0054931640625,-0.00762939453125,-0.0042724609375,-0.0115966796875,-0.0067138671875,-0.00885009765625,-0.00640869140625,-0.0042724609375,-0.0030517578125,-0.006103515625,-0.0006103515625,-0.00335693359375,0.020335083827376366,0.052087098360061646,0.04627441242337227,0.05047515779733658,0.02284545823931694,0.035057373344898224,0.036484070122241974,0.03666778653860092,0.03885803371667862,0.01992034912109375,0.029314575716853142
-0.003662109375,-0.00518798828125,-0.00213623046875,-0.0091552734375,-0.0054931640625,-0.001220703125,0.0,-0.001220703125,-0.00244140625,-0.0030517578125,-0.01739501953125,-0.003662109375,-0.00213623046875,-0.0128173828125,-0.00335693359375,-0.0018310546875,0.0,0.00244140625,-0.0006103515625,-0.00457763671875,-0.00457763671875,0.00213623046875,-0.001220703125,0.0,-0.00579833984375,-0.00518798828125,-0.0054931640625,0.00030517578125,-0.003662109375,-0.00213623046875,-0.01617431640625,-0.00518798828125,-0.00518798828125,0.00335693359375,-0.00274658203125,0.00091552734375,0.00213623046875,-0.00091552734375,-0.006103515625,0.0,0.038340453058481216,0.06887176632881165,0.03940795734524727,0.03155425935983658,0.03383178636431694,0.018577881157398224,0.039078064262866974,0.03193756192922592,0.02909240685403347,0.02053070068359375,0.023668823763728142
-0.00244140625,-0.0030517578125,-0.006103515625,-0.00946044921875,-0.01220703125,-0.0018310546875,-0.0006103515625,-0.00213623046875,-0.0018310546875,-0.00396728515625,-0.02105712890625,0.001220703125,-0.00244140625,-0.00396728515625,-0.003662109375,-0.001220703125,-0.00244140625,-0.0042724609375,-0.00396728515625,-0.01556396484375,-0.006103515625,-0.00396728515625,-0.0128173828125,-0.0030517578125,0.0030517578125,-0.00457763671875,-0.0030517578125,-0.0030517578125,-0.0018310546875,-0.00396728515625,-0.009765625,-0.009765625,0.0042724609375,-0.001220703125,-0.0006103515625,-0.02197265625,-0.00457763671875,-0.00274658203125,-0.00091552734375,0.00274658203125,0.023081665858626366,0.031487733125686646,0.03147338703274727,0.03323272615671158,0.03200073167681694,0.028496094048023224,0.033127136528491974,0.014084777794778347,0.04648742824792862,0.02846527099609375,0.025347290560603142
-0.00946044921875,-0.00244140625,-0.0006103515625,-0.01556396484375,-0.00701904296875,-0.003662109375,-0.00335693359375,-0.00152587890625,-0.001220703125,-0.00885009765625,-0.0189208984375,-0.003662109375,-0.00579833984375,-0.00152587890625,-0.00274658203125,0.00762939453125,-0.00244140625,-0.003662109375,-0.0042724609375,0.00518798828125,-0.00701904296875,-0.001220703125,0.00396728515625,-0.003662109375,-0.001220703125,-0.01922607421875,-0.003662109375,-0.00396728515625,-0.01251220703125,-0.00640869140625,-0.00640869140625,-0.01190185546875,-0.00335693359375,-0.00396728515625,0.0030517578125,-0.0030517578125,-0.00030517578125,0.02044677734375,0.003662109375,-0.00335693359375,0.023081665858626366,0.045068055391311646,0.03238891437649727,0.001341857947409153,0.02742309495806694,0.030174560844898224,0.030685730278491974,0.014847717247903347,0.02573547326028347,0.02053070068359375,0.014360961504280567
-0.0018310546875,-0.00030517578125,0.00152587890625,-0.00885009765625,-0.00244140625,-0.00030517578125,-0.00091552734375,-0.001220703125,-0.003662109375,-0.00152587890625,-0.02166748046875,0.00030517578125,-0.0018310546875,-0.00335693359375,0.00091552734375,-0.0030517578125,0.00885009765625,-0.00823974609375,-0.003662109375,0.00457763671875,-0.0042724609375,0.0006103515625,0.01312255859375,-0.0079345703125,0.0,-0.00091552734375,-0.00518798828125,0.0006103515625,-0.0103759765625,-0.00518798828125,-0.0006103515625,0.00579833984375,-0.0048828125,-0.0042724609375,0.0018310546875,-0.00579833984375,-0.00091552734375,0.0103759765625,-0.00457763671875,0.00030517578125,0.047495726495981216,0.06337860226631165,0.027658691629767418,-0.006897888146340847,0.02131957933306694,0.041466064751148224,0.057541199028491974,0.03971954435110092,0.02726135216653347,0.04952239990234375,0.030840454623103142
-0.0030517578125,-0.01434326171875,-0.0030517578125,-0.00762939453125,-0.01068115234375,-0.00457763671875,-0.00213623046875,0.003662109375,-0.00335693359375,-0.0018310546875,-0.0244140625,-0.003662109375,-0.001220703125,-0.00518798828125,-0.00213623046875,-0.0030517578125,-0.00640869140625,-0.00244140625,-0.006103515625,-0.001220703125,-0.00823974609375,-0.00701904296875,-0.00946044921875,-0.00823974609375,0.0030517578125,0.0006103515625,-0.00213623046875,0.00091552734375,-0.00396728515625,-0.00335693359375,0.0,-0.00457763671875,0.0018310546875,-0.00213623046875,-0.00244140625,-0.00396728515625,-0.006103515625,-0.00213623046875,-0.00579833984375,-0.0018310546875,0.044443968683481216,0.055138856172561646,0.024149170145392418,0.008513488806784153,0.02711791917681694,0.046348877251148224,0.039078064262866974,0.05711456388235092,0.03397522121667862,0.02541351318359375,0.024889526888728142
-0.020751953125,-0.00091552734375,-0.00335693359375,-0.00701904296875,-0.0042724609375,-0.00274658203125,-0.00091552734375,-0.00579833984375,0.00335693359375,0.00091552734375,-0.0048828125,0.00152587890625,-0.0018310546875,0.00091552734375,-0.003662109375,-0.00030517578125,-0.001220703125,-0.00762939453125,-0.00823974609375,-0.006103515625,-0.00274658203125,-0.0042724609375,-0.00091552734375,-0.008544921875,-0.0006103515625,-0.01373291015625,-0.00396728515625,-0.00823974609375,0.01556396484375,-0.0018310546875,-0.0042724609375,-0.00518798828125,-0.001220703125,-0.0018310546875,0.001220703125,-0.00579833984375,-0.00396728515625,-0.006103515625,-0.00244140625,0.00091552734375,0.037730101495981216,0.06917694211006165,0.023538818582892418,0.02743438631296158,0.02528686448931694,0.039177246391773224,0.040603943169116974,0.03086944669485092,0.03840027004480362,0.03426361083984375,0.03541808947920799
-0.001220703125,-0.0006103515625,-0.00274658203125,-0.00946044921875,-0.00457763671875,-0.0042724609375,-0.00244140625,-0.0018310546875,-0.023193359375,-0.01953125,-0.02960205078125,-0.01190185546875,-0.0177001953125,-0.01708984375,-0.0238037109375,-0.01708984375,-0.00030517578125,-0.0067138671875,-0.00579833984375,-0.00579833984375,-0.01220703125,-0.0091552734375,-0.00823974609375,0.001220703125,-0.00335693359375,-0.00244140625,-0.00030517578125,-0.0042724609375,-0.00823974609375,-0.01312255859375,-0.00396728515625,-0.00885009765625,-0.00579833984375,-0.008544921875,-0.0018310546875,0.00762939453125,-0.00396728515625,-0.00091552734375,0.02166748046875,-0.00274658203125,0.026438599452376366,0.06673553586006165,0.030405273661017418,0.05703643709421158,0.04237670823931694,0.030479736626148224,0.08180267363786697,0.02476593106985092,0.02649841271340847,0.06478118896484375,0.04167419299483299
-0.00579833984375,-0.0042724609375,-0.0018310546875,-0.0079345703125,-0.00732421875,0.0,-0.001220703125,-0.001220703125,-0.02410888671875,-0.0201416015625,-0.03265380859375,-0.015869140625,-0.02044677734375,-0.0250244140625,-0.02655029296875,-0.01708984375,0.0006103515625,-0.00274658203125,0.00274658203125,-0.0006103515625,-0.00335693359375,0.00030517578125,0.0018310546875,-0.001220703125,0.00762939453125,-0.001220703125,-0.00335693359375,-0.0006103515625,-0.0067138671875,-0.0018310546875,-0.0018310546875,-0.00823974609375,-0.00091552734375,-0.00274658203125,-0.0030517578125,-0.00030517578125,-0.001220703125,-0.0018310546875,-0.00030517578125,0.00701904296875,0.025523072108626366,0.06520965695381165,0.03574584797024727,0.04452423006296158,0.03520507737994194,-0.0001904296805150807,0.033737488090991974,0.02522369474172592,0.02771911583840847,0.04372406005859375,0.03511291369795799
-0.00152587890625,-0.00244140625,-0.00030517578125,-0.009765625,-0.008544921875,-0.0103759765625,-0.0042724609375,-0.00152587890625,-0.0213623046875,-0.01556396484375,-0.029296875,-0.01708984375,-0.010986328125,-0.01434326171875,-0.02716064453125,-0.01251220703125,-0.00030517578125,-0.00518798828125,-0.00244140625,-0.0042724609375,-0.00946044921875,-0.01190185546875,-0.0103759765625,-0.0054931640625,0.0103759765625,-0.0030517578125,-0.0018310546875,-0.0054931640625,-0.00244140625,-0.00335693359375,-0.0048828125,-0.00274658203125,0.00244140625,-0.001220703125,-0.0042724609375,-0.00518798828125,-0.00640869140625,-0.0018310546875,-0.00762939453125,0.00396728515625,0.024607544764876366,0.07558563351631165,0.03864501789212227,0.03430084139108658,0.02376098558306694,0.029716797173023224,0.032974548637866974,0.014389953576028347,0.03168640285730362,0.01137542724609375,0.030993042513728142
-0.0030517578125,-0.00274658203125,-0.003662109375,-0.01007080078125,-0.00518798828125,-0.00213623046875,-0.006103515625,-0.0030517578125,-0.0030517578125,-0.0128173828125,-0.0201416015625,-0.003662109375,-0.0048828125,-0.0018310546875,-0.003662109375,-0.00274658203125,-0.00030517578125,-0.00457763671875,-0.001220703125,0.0,-0.0103759765625,-0.0067138671875,-0.00885009765625,-0.0048828125,0.00030517578125,-0.0054931640625,-0.00457763671875,-0.00152587890625,-0.0042724609375,-0.00244140625,-0.00762939453125,0.0067138671875,-0.001220703125,-0.00579833984375,-0.0091552734375,-0.00274658203125,-0.00244140625,-0.00732421875,-0.0048828125,0.0006103515625,0.039408568292856216,0.06734588742256165,0.04230712726712227,0.009276428259909153,0.03993530198931694,0.015831299126148224,0.027328796684741974,0.02430816739797592,0.03458557277917862,0.01168060302734375,0.027178345248103142
-0.00244140625,-0.00640869140625,-0.00213623046875,-0.01007080078125,-0.0006103515625,-0.00396728515625,-0.00335693359375,-0.0054931640625,-0.00152587890625,-0.00244140625,-0.02960205078125,-0.00213623046875,-0.00579833984375,0.00335693359375,-0.00213623046875,-0.00244140625,-0.00030517578125,-0.0018310546875,-0.00396728515625,-0.00701904296875,-0.0079345703125,-0.00091552734375,-0.00152587890625,-0.00213623046875,-0.00213623046875,-0.00396728515625,-0.00335693359375,-0.00732421875,-0.0042724609375,-0.00762939453125,-0.009765625,-0.01220703125,-0.00244140625,0.00244140625,0.0006103515625,-0.00335693359375,-0.01983642578125,-0.00335693359375,-0.00640869140625,-0.0152587890625,0.034220580011606216,0.054375916719436646,0.018961181864142418,0.02499298006296158,0.01796264573931694,0.012169189751148224,0.051285095512866974,0.04185577481985092,0.04221496731042862,0.03563690185546875,0.03587585315108299
-0.0042724609375,-0.00274658203125,0.009765625,-0.0091552734375,-0.006103515625,0.00762939453125,-0.00213623046875,-0.00244140625,0.00823974609375,-0.0048828125,-0.02105712890625,0.0030517578125,-0.00457763671875,-0.00335693359375,0.009765625,-0.00457763671875,-0.00701904296875,-0.00335693359375,-0.00823974609375,-0.0067138671875,-0.01495361328125,-0.00244140625,-0.00457763671875,-0.0030517578125,-0.00030517578125,-0.00732421875,0.0006103515625,-0.00091552734375,-0.0054931640625,-0.00213623046875,-0.00701904296875,-0.00579833984375,0.00091552734375,-0.00885009765625,-0.00396728515625,-0.00823974609375,-0.00579833984375,-0.0018310546875,-0.00640869140625,-0.00244140625,0.032236937433481216,0.08733490109443665,0.026743164286017418,0.006072082556784153,0.05733032152056694,0.042076416313648224,0.031601257622241974,0.05360504239797592,0.02512512169778347,0.02907562255859375,0.030840454623103142
-0.0048828125,-0.00335693359375,-0.0018310546875,-0.006103515625,-0.0042724609375,-0.00335693359375,0.0030517578125,-0.00335693359375,-0.0042724609375,-0.00518798828125,-0.02227783203125,-0.00579833984375,0.00213623046875,-0.00335693359375,-0.00030517578125,-0.0103759765625,-0.00579833984375,-0.0030517578125,-0.0067138671875,-0.00762939453125,-0.013427734375,-0.00457763671875,-0.0030517578125,-0.0091552734375,-0.00091552734375,0.0,-0.0006103515625,-0.0006103515625,-0.01922607421875,-0.00274658203125,-0.0067138671875,-0.01190185546875,-0.006103515625,-0.0018310546875,-0.01251220703125,-0.00244140625,-0.0030517578125,-0.00579833984375,-0.00579833984375,-0.0103759765625,0.047037962824106216,0.06383636593818665,0.019571533426642418,0.01599029451608658,0.01872558519244194,0.047416992485523224,0.036636658012866974,0.02476593106985092,0.04435119777917862,0.03823089599609375,0.03526550158858299
-0.0054931640625,-0.001220703125,-0.0079345703125,-0.01007080078125,-0.00518798828125,-0.00640869140625,-0.0054931640625,-0.0042724609375,-0.00244140625,-0.00885009765625,-0.0244140625,-0.003662109375,-0.01678466796875,-0.00274658203125,-0.00244140625,-0.00274658203125,0.00091552734375,-0.01953125,-0.01007080078125,-0.00457763671875,-0.003662109375,0.00030517578125,-0.00701904296875,-0.006103515625,-0.00335693359375,-0.00274658203125,-0.003662109375,-0.00091552734375,-0.006103515625,-0.0042724609375,-0.030517578125,-0.0067138671875,0.0,-0.00396728515625,-0.0030517578125,-0.00946044921875,-0.00335693359375,-0.0042724609375,-0.00518798828125,0.00030517578125,0.055125121027231216,0.06887176632881165,0.027506103739142418,0.01644805818796158,0.03932495042681694,0.041008301079273224,0.052810974419116974,0.03315826505422592,0.02268371544778347,-0.00479888916015625,0.03404479846358299
0.0,-0.006103515625,0.00030517578125,-0.0103759765625,0.0054931640625,-0.00244140625,-0.00030517578125,-0.00885009765625,-0.0030517578125,-0.00335693359375,-0.02105712890625,-0.00518798828125,-0.00213623046875,-0.003662109375,-0.00244140625,-0.0018310546875,-0.0067138671875,-0.00457763671875,-0.001220703125,0.00152587890625,-0.00152587890625,-0.01434326171875,-0.0030517578125,-0.00732421875,-0.0115966796875,-0.00732421875,-0.00335693359375,0.010986328125,-0.006103515625,-0.0042724609375,-0.00762939453125,-0.003662109375,-0.0042724609375,-0.0048828125,-0.0006103515625,0.0006103515625,0.00213623046875,-0.0042724609375,-0.003662109375,-0.00335693359375,0.054209593683481216,0.08550384640693665,0.028726806864142418,0.02316192537546158,0.02696533128619194,0.028038330376148224,0.039993591606616974,0.05604644864797592,0.03046569786965847,0.01045989990234375,0.03312927111983299
-0.00274658203125,-0.001220703125,0.0006103515625,-0.009765625,-0.0128173828125,-0.00244140625,-0.00091552734375,-0.00762939453125,0.0030517578125,0.0018310546875,-0.01861572265625,0.001220703125,-0.00091552734375,0.00885009765625,-0.00335693359375,0.0,0.00213623046875,-0.00152587890625,-0.0018310546875,0.0006103515625,-0.0018310546875,-0.0042724609375,-0.00091552734375,-0.00244140625,0.001220703125,0.003662109375,-0.00274658203125,-0.00030517578125,-0.0030517578125,-0.00091552734375,0.00244140625,-0.00091552734375,-0.00213623046875,-0.0006103515625,0.00152587890625,-0.00518798828125,-0.00274658203125,0.00091552734375,-0.0030517578125,-0.0042724609375,0.07908142358064651,0.10656097531318665,0.03315185382962227,0.011260070838034153,0.03078002855181694,0.025749512016773224,0.047928161919116974,0.02797027677297592,0.02710876427590847,0.03166961669921875,0.05082946643233299
-0.00152587890625,0.0,-0.00030517578125,-0.00762939453125,-0.00732421875,-0.00457763671875,0.0,0.0006103515625,-0.01953125,-0.0201416015625,-0.030517578125,-0.010986328125,-0.01739501953125,-0.0152587890625,-0.02197265625,-0.01129150390625,-0.00396728515625,-0.00335693359375,-0.006103515625,-0.00274658203125,-0.0042724609375,-0.0030517578125,-0.0042724609375,-0.00579833984375,0.00274658203125,-0.00457763671875,-0.0054931640625,-0.0048828125,-0.00701904296875,-0.00396728515625,-0.006103515625,-0.00335693359375,0.0042724609375,-0.00213623046875,0.003662109375,0.0048828125,0.00396728515625,-0.0042724609375,-0.01617431640625,-0.00335693359375,0.037119749933481216,0.11693695187568665,0.03315185382962227,0.008360900916159153,0.02666015550494194,0.010643310844898224,0.06318695098161697,0.015000305138528347,0.02634582482278347,-0.02600860595703125,0.04594665393233299
-0.00091552734375,-0.001220703125,0.00152587890625,-0.010986328125,-0.00579833984375,-0.00457763671875,-0.00091552734375,-0.00152587890625,-0.0244140625,-0.02166748046875,-0.03204345703125,-0.0140380859375,-0.0164794921875,-0.0213623046875,-0.0244140625,-0.00640869140625,-0.00335693359375,-0.00640869140625,-0.00335693359375,-0.00396728515625,-0.0018310546875,-0.001220703125,-0.00457763671875,-0.03021240234375,-0.006103515625,-0.00457763671875,-0.00030517578125,-0.001220703125,-0.00213623046875,-0.0018310546875,-0.00701904296875,0.0006103515625,-0.00274658203125,-0.00396728515625,-0.00335693359375,-0.001220703125,-0.01556396484375,-0.006103515625,-0.008544921875,-0.0115966796875,0.045969847589731216,0.09999969601631165,0.04307006672024727,0.01873687654733658,0.02299804612994194,0.030632324516773224,0.035415954887866974,0.02507110685110092,0.03550110012292862,-0.05622100830078125,-0.011273804120719433
