Voltage.EMG01_r_gastro
-0.0081988526508212
0.0003460693405941
0.0120953368023037
0.0259808357805013
0.0259808357805013
0.0301007088273763
0.0334576405584812
0.0456646718084812
0.0474957264959812
0.0073651121929287
0.0731304958462715
0.0851849392056465
0.0810650661587715
0.0725201442837715
0.0960186794400215
0.0963238552212715
0.0401715077459812
-0.0498553477227687
-0.0541278086602687
-0.0788470432162284
-0.0008746337844058
0.0259808357805013
0.0384930409491062
0.0175885017961263
0.0418499745428562
0.0349835194647312
0.0354412831366062
0.0233868416398763
0.0545147694647312
0.0368145741522312
0.0235394295305013
0.0207928474992513
0.0261334236711263
0.0519207753241062
0.0392559804022312
-0.0045367432758212
0.0169781502336263
0.0415447987616062
0.0226239021867513
0.0282696541398763
0.0420025624334812
0.0310162361711263
0.0497845448553562
0.0224713142961263
0.0191143807023763
0.0200299080461263
0.0203350838273763
0.0142315672710537
0.0204876717180013
0.0540570057928562
0.0444439686834812
0.0314739979803562
0.0368145741522312
0.0421551503241062
0.0513104237616062
0.0288800057023763
0.0380352772772312
0.0597027577459812
0.0293377693742513
-0.0150653077289462
-0.0188800040632486
0.0020245360210537
0.0020245360210537
0.0056866453960537
0.0474957264959812
0.0320843495428562
0.0606182850897312
0.0514630116522312
0.0305584724992513
0.0380352772772312
0.0488690175116062
0.0537518300116062
0.0682476833462715
0.0790814235806465
0.0601605214178562
0.0085858153179287
-0.0051470948383212
0.0099591063335537
0.0555828846991062
0.0716046169400215
0.0342205800116062
0.0107220457866787
-0.0629779025912284
-0.0185748282819986
-0.0194903556257486
-0.0252886954694986
-0.0114031983539462
0.0194195564836263
0.0484112538397312
0.0047711180523037
0.0018719482468441
0.0040081785991787
0.0181988533586263
0.0471905507147312
0.0500897206366062
0.0368145741522312
0.0337628163397312
0.0259808357805013
0.0117901610210537
-0.0020953370258212
0.0310162361711263
0.0188092049211263
0.0301007088273763
0.0284222420305013
0.0445965565741062
0.0519207753241062
0.0333050526678562
0.0412396229803562
0.0264385994523763
-0.0062152100726962
0.0267437752336263
0.0539044179022312
0.0334576405584812
0.0337628163397312
0.0203350838273763
0.0383404530584812
0.0230816658586263
0.0230816658586263
0.0474957264959812
0.0444439686834812
0.0377301014959812
0.0264385994523763
0.0255230721086263
0.0246075447648763
0.0394085682928562
0.0342205800116062
0.0322369374334812
0.0470379628241062
0.0551251210272312
0.0542095936834812
0.0790814235806465
0.0371197499334812
0.0459698475897312
0.0442913807928562
0.0439862050116062
0.0430706776678562
0.0319317616522312
0.0278118904680013
0.0331524647772312
0.0174359139055013
0.0168255623430013
0.0131634520366787
0.0084332274273037
-0.0060626221820712
-0.0184222403913736
0.0557354725897312
0.0268963631242513
-0.0072833253070712
0.0383404530584812
0.0262860115617513
0.0209454353898763
0.0037030028179287
-0.0141497803851962
0.0047711180523037
0.0154522703960537
0.0235394295305013
0.0398663319647312
0.0372723378241062
0.0200299080461263
0.0450543202459812
0.0427655018866062
0.0510052479803562
0.0273541267961263
0.0227764900773763
0.0409344471991062
0.0449017323553562
0.0450543202459812
0.0133160399273037
0.0464276112616062
0.0714520290493965
0.0537518300116062
0.0255230721086263
0.0746563747525215
0.0020245360210537
0.0012615966843441
0.0392559804022312
0.0325421132147312
0.0813702419400215
0.0859478786587715
0.1059368923306465
0.0841168239712715
0.0851849392056465
0.0333050526678562
0.0394085682928562
0.0513104237616062
-0.0130816651508212
-0.0092669678851962
0.0301007088273763
0.0294903572648763
-0.0330706797540187
-0.0710650607943534
-0.0233050528913736
0.0189617928117513
-0.0199481192976236
0.0113323973491787
-0.0139971924945712
-0.0225421134382486
-0.0216265860944986
-0.0397845469415187
-0.0472613535821437
0.0004986572312191
0.0125531004741787
0.0249127205461263
4.089355934411287e-05
0.0304058846086263
0.0653485134243965
0.0474957264959812
0.0275067146867513
0.0487164296209812
0.0610760487616062
0.0830487087368965
0.1150921657681465
0.1587322950363159
0.1649883985519409
0.2005413770675659
0.1181439235806465
0.0844219997525215
0.0703839138150215
0.0339154042303562
-0.0722857639193534
-0.0852557346224784
-0.0020953370258212
-0.0153704835101962
-0.0437518320977687
-0.0390216074883937
-0.0150653077289462
-0.0065203858539462
-0.0416156016290187
-0.0805255100131034
-0.0951739475131034
-0.0988360568881034
-0.0268145743757486
0.0159100349992513
0.0616864003241062
0.1163128688931465
0.1419476270675659
0.1727703809738159
0.1398113965988159
0.1057843044400215
0.0981549099087715
0.1556805372238159
0.0966290310025215
0.0638226345181465
0.1247052028775215
-0.0037738038226962
-0.0623675547540187
-0.0699969455599784
-0.0696917697787284
-0.0374957285821437
-0.0599261485040187
-0.1182147189974784
-0.1017352268099784
-0.0838824436068534
-0.0603839121758937
-0.0461932383477687
0.0096539305523037
0.0706890895962715
0.1178387477993965
0.1419476270675659
0.1758221387863159
0.1456097364425659
0.1202801540493965
0.0949505642056465
0.1514080762863159
0.1746014356613159
0.1419476270675659
0.1466778516769409
0.1225689724087715
0.0821331813931465
0.0726727321743965
0.1259258985519409
0.1692608594894409
0.1532391309738159
0.1248577907681465
0.0975445583462715
0.0304058846086263
-0.1119586154818534
-0.3257342576980591
-0.3374835252761841
-0.2660723924636841
-0.203816533088684
-0.175740361213684
-0.203053593635559
-0.140645146369934
-0.1011248752474784
-0.0767108127474784
-0.0323077403008937
0.0166729744523763
0.0465801991522312
0.0835064724087715
0.1259258985519409
0.1320294141769409
0.1530865430831909
0.1475933790206909
0.1753643751144409
0.1790264844894409
0.2870587110519409
0.3497723340988159
0.4338482618331909
0.4071453809738159
0.3290203809738159
0.2513531446456909
0.0983074977993965
0.0348309315741062
0.0160626228898763
0.0629071071743965
0.0119427489116787
0.0430706776678562
0.0308636482805013
0.0313214100897312
0.0590924061834812
0.0281170662492513
0.0296429451555013
0.0447491444647312
0.0389508046209812
0.0287274178117513
0.0267437752336263
-0.0588580332696437
0.0011090087937191
-0.0024005128070712
0.0003460693405941
0.0204876717180013
0.0775555446743965
0.1063946560025215
0.0796917751431465
-0.0304766837507486
-0.0567218028008937
-0.0342913828790187
-0.0362750254571437
-0.0071307374164462
0.0207928474992513
0.0482586659491062
0.0049237059429287
0.0954083278775215
0.1750591993331909
0.1298931837081909
0.0769451931118965
0.0120953368023037
-0.0202532950788736
-0.0681658908724784
-0.1011248752474784
-0.0555010996758937
-0.0345965586602687
-0.0596209727227687
-0.0588580332696437
-0.0580950938165187
-0.0579425059258937
-0.0547381602227687
-0.0558062754571437
-0.0446673594415187
-0.0457354746758937
-0.0292559806257486
0.0329998768866062
0.0197247322648763
-0.0147601319476962
0.0093487547710537
-0.0014849853469058
0.0058392332866787
0.0146893309429287
0.0333050526678562
0.0496319569647312
0.0366619862616062
0.0401715077459812
0.0616864003241062
0.0378826893866062
0.0223187264055013
0.0294903572648763
0.0279644783586263
0.0139263914898037
0.0104168700054287
0.0224713142961263
0.0580242909491062
0.0267437752336263
0.0572613514959812
0.0537518300116062
0.0430706776678562
0.0345257557928562
0.0345257557928562
0.0163677986711263
0.0023297118023037
0.0209454353898763
0.0438336171209812
0.0069073485210537
0.0014141845749691
0.0264385994523763
0.0354412831366062
0.0339154042303562
0.0252178963273763
0.0456646718084812
0.0345257557928562
0.0183514412492513
0.0069073485210537
0.0214031990617513
0.0203350838273763
0.0062969969585537
0.0145367430523037
0.0210980232805013
0.0310162361711263
0.0185040291398763
0.0197247322648763
0.0206402596086263
0.0215557869523763
0.0223187264055013
0.0210980232805013
0.0085858153179287
0.0246075447648763
0.0441387929022312
0.0384930409491062
0.0642803981900215
0.0220135506242513
0.0233868416398763
0.0192669685930013
0.0191143807023763
0.0235394295305013
0.0233868416398763
0.0246075447648763
0.0102642821148037
0.0095013426616787
0.0272015389055013
0.0214031990617513
0.0159100349992513
0.0354412831366062
0.0296429451555013
0.0539044179022312
0.0294903572648763
0.0334576405584812
0.0336102284491062
0.0243023689836263
0.0329998768866062
0.0348309315741062
0.0322369374334812
0.0203350838273763
0.0329998768866062
0.0279644783586263
0.0243023689836263
0.0235394295305013
0.0012615966843441
0.0087384032085537
0.0374249257147312
0.0357464589178562
0.0003460693405941
0.0328472889959812
0.0140789793804287
0.0270489510148763
0.0549725331366062
0.0214031990617513
0.0339154042303562
0.0189617928117513
0.0371197499334812
0.0134686278179287
0.0273541267961263
0.0131634520366787
0.0262860115617513
0.0287274178117513
0.0084332274273037
0.0355938710272312
0.0239971932023763
0.0166729744523763
0.0207928474992513
0.0597027577459812
0.0200299080461263
0.0183514412492513
0.0340679921209812
0.0365093983709812
0.0314739979803562
0.0435284413397312
0.0229290779680013
0.0120953368023037
0.0220135506242513
0.0285748299211263
0.0307110603898763
0.0407818593084812
0.0267437752336263
0.0378826893866062
0.0192669685930013
0.0262860115617513
0.0302532967180013
0.0291851814836263
0.0369671620428562
0.0304058846086263
0.0322369374334812
0.0279644783586263
0.0442913807928562
0.0261334236711263
0.0276593025773763
0.0079754637554287
0.0148419188335537
0.0249127205461263
0.0290325935930013
0.0528363026678562
0.0294903572648763
0.0244549568742513
0.0256756599992513
0.0270489510148763
0.0291851814836263
0.0305584724992513
0.0252178963273763
0.0191143807023763
0.0233868416398763
0.0307110603898763
0.0606182850897312
0.0156048582866787
0.0188092049211263
0.0165203865617513
0.0293377693742513
0.0340679921209812
0.0207928474992513
0.0282696541398763
0.0140789793804287
0.0134686278179287
-0.0214739982038736
0.0172833260148763
0.0095013426616787
0.0232342537492513
0.0156048582866787
0.0122479246929287
0.0191143807023763
0.0143841551616787
0.0282696541398763
0.0278118904680013
0.0287274178117513
0.0468853749334812
0.0262860115617513
0.0360516346991062
0.0316265858709812
0.0215557869523763
0.0244549568742513
0.0432232655584812
0.0377301014959812
0.0186566170305013
0.0383404530584812
0.0427655018866062
0.0348309315741062
0.0377301014959812
0.0139263914898037
0.0340679921209812
0.0197247322648763
0.0061444090679287
0.0224713142961263
0.0316265858709812
0.0230816658586263
0.0284222420305013
0.0212506111711263
0.0258282478898763
0.0272015389055013
0.0224713142961263
0.0250653084367513
0.0229290779680013
0.0250653084367513
0.0543621815741062
0.0329998768866062
0.0272015389055013
0.0568035878241062
0.0296429451555013
0.0307110603898763
0.0227764900773763
0.0378826893866062
0.0236920174211263
0.0317791737616062
0.0345257557928562
0.0258282478898763
0.0159100349992513
0.0429180897772312
0.0427655018866062
0.0467327870428562
0.0482586659491062
0.0564984120428562
0.0632122829556465
0.0441387929022312
0.0323895253241062
0.0284222420305013
0.0575665272772312
0.0571087636053562
0.0532940663397312
0.0516155995428562
0.0584820546209812
0.0447491444647312
0.0340679921209812
0.0426129139959812
0.0435284413397312
0.0296429451555013
0.0441387929022312
0.0510052479803562
0.0421551503241062
0.0336102284491062
0.0238446053117513
0.0127056883648037
0.0380352772772312
0.0180462654680013
0.0105694578960537
0.0523785389959812
0.0201824959367513
0.0078228758648037
0.0107220457866787
0.0069073485210537
0.0081280516460537
0.0180462654680013
0.0201824959367513
0.0297955330461263
0.0171307381242513
0.0062969969585537
0.0371197499334812
0.0143841551616787
0.0111798094585537
0.0169781502336263
0.0023297118023037
0.0224713142961263
0.0285748299211263
0.0174359139055013
0.0076702879741787
0.0302532967180013
0.0284222420305013
0.0285748299211263
0.0331524647772312
0.0342205800116062
0.0268963631242513
0.0239971932023763
0.0546673573553562
0.0296429451555013
0.0288800057023763
0.0239971932023763
0.0291851814836263
0.0450543202459812
0.0291851814836263
0.0204876717180013
0.0241497810930013
0.0244549568742513
0.0272015389055013
0.0415447987616062
0.0294903572648763
0.0186566170305013
0.0249127205461263
0.0329998768866062
0.0201824959367513
0.0304058846086263
0.0360516346991062
0.0329998768866062
0.0299481209367513
0.0264385994523763
0.0331524647772312
0.0394085682928562
0.0204876717180013
0.0378826893866062
0.0346783436834812
0.0392559804022312
0.0172833260148763
0.0143841551616787
0.0311688240617513
0.0243023689836263
0.0209454353898763
0.0294903572648763
0.0288800057023763
0.0183514412492513
0.0188092049211263
0.0174359139055013
0.0105694578960537
0.0322369374334812
0.0111798094585537
0.0259808357805013
0.0239971932023763
0.0528363026678562
0.0532940663397312
0.0642803981900215
0.0290325935930013
0.0458172596991062
0.0453594960272312
0.0333050526678562
0.0326947011053562
0.0296429451555013
0.0055340575054287
0.0505474843084812
0.0329998768866062
0.0301007088273763
0.0403240956366062
0.0412396229803562
0.0416973866522312
0.0297955330461263
0.0099591063335537
0.0200299080461263
0.0209454353898763
0.0301007088273763
0.0319317616522312
0.0366619862616062
0.0159100349992513
0.0253704842180013
0.0230816658586263
0.0456646718084812
0.0261334236711263
0.0236920174211263
0.0250653084367513
0.0159100349992513
0.0339154042303562
0.0262860115617513
0.0410870350897312
0.0255230721086263
0.0374249257147312
0.0333050526678562
0.0255230721086263
0.0268963631242513
0.0426129139959812
0.0157574471086263
0.0337628163397312
0.0062969969585537
0.0377301014959812
0.0302532967180013
0.0256756599992513
0.0244549568742513
0.0343731679022312
0.0317791737616062
0.0603131093084812
0.0192669685930013
0.0185040291398763
0.0310162361711263
0.0004986572312191
0.0259808357805013
0.0304058846086263
0.0229290779680013
0.0339154042303562
0.0337628163397312
0.0400189198553562
0.0342205800116062
0.0256756599992513
0.0423077382147312
0.0320843495428562
0.0453594960272312
0.0210980232805013
0.0162152107805013
0.0328472889959812
0.0120953368023037
0.0374249257147312
0.0259808357805013
0.0212506111711263
0.0334576405584812
0.0203350838273763
0.0259808357805013
0.0145367430523037
0.0088909910991787
0.0268963631242513
0.0320843495428562
0.0290325935930013
0.0331524647772312
0.0348309315741062
0.0293377693742513
0.0253704842180013
0.0163677986711263
0.0268963631242513
0.0290325935930013
0.0249127205461263
0.0270489510148763
0.0217083748430013
0.0203350838273763
0.0319317616522312
0.0346783436834812
0.0285748299211263
0.0268963631242513
0.0276593025773763
0.0235394295305013
0.0279644783586263
0.0307110603898763
0.0435284413397312
0.0308636482805013
0.0322369374334812
0.0082806395366787
0.0290325935930013
0.0279644783586263
0.0307110603898763
0.0244549568742513
0.0334576405584812
0.0369671620428562
0.0125531004741787
0.0221661385148763
0.0175885017961263
0.0297955330461263
0.0418499745428562
0.0421551503241062
0.0305584724992513
0.0279644783586263
0.0264385994523763
0.0336102284491062
0.0268963631242513
0.0267437752336263
0.0043133543804287
0.0314739979803562
0.0288800057023763
0.0339154042303562
0.0246075447648763
0.0372723378241062
0.0261334236711263
0.0290325935930013
0.0206402596086263
0.0302532967180013
0.0432232655584812
0.0351361073553562
0.0247601326555013
0.0235394295305013
0.0215557869523763
0.0239971932023763
0.0171307381242513
0.0230816658586263
0.0244549568742513
0.0334576405584812
0.0331524647772312
0.0322369374334812
0.0607708729803562
0.0279644783586263
0.0163677986711263
0.0369671620428562
0.0293377693742513
0.0349835194647312
0.0226239021867513
0.0224713142961263
0.0244549568742513
0.0272015389055013
0.0294903572648763
0.0249127205461263
0.0322369374334812
0.0542095936834812
0.0555828846991062
0.0461224354803562
0.0296429451555013
0.0265911873430013
0.0195721443742513
0.0287274178117513
0.0265911873430013
0.0433758534491062
0.0212506111711263
0.0207928474992513
0.0227764900773763
0.0261334236711263
0.0027874754741787
0.0299481209367513
0.0507000721991062
0.0587872304022312
0.0075177000835537
0.0267437752336263
0.0301007088273763
0.0307110603898763
0.0287274178117513
0.0319317616522312
0.0244549568742513
0.0310162361711263
0.0317791737616062
0.0314739979803562
0.0218609627336263
0.0288800057023763
0.0172833260148763
0.0404766835272312
0.0329998768866062
0.0253704842180013
0.0236920174211263
0.0259808357805013
0.0268963631242513
0.0174359139055013
0.0333050526678562
0.0317791737616062
0.0227764900773763
0.0316265858709812
0.0137738035991787
0.0302532967180013
0.0204876717180013
-0.0081988526508212
0.0276593025773763
0.0471905507147312
0.0401715077459812
0.0171307381242513
0.0262860115617513
0.0108746336773037
0.0241497810930013
0.0365093983709812
0.0430706776678562
0.0299481209367513
0.0333050526678562
0.0308636482805013
0.0209454353898763
0.0241497810930013
0.0380352772772312
0.0404766835272312
0.0368145741522312
0.0323895253241062
0.0224713142961263
0.0201824959367513
0.0061444090679287
0.0551251210272312
0.0218609627336263
0.0308636482805013
0.0296429451555013
0.0412396229803562
0.0319317616522312
0.0366619862616062
0.0325421132147312
0.0230816658586263
0.0246075447648763
0.0355938710272312
0.0223187264055013
0.0192669685930013
0.0355938710272312
0.0169781502336263
0.0249127205461263
0.0354412831366062
0.0232342537492513
0.0156048582866787
0.0307110603898763
0.0227764900773763
0.0320843495428562
0.0238446053117513
0.0191143807023763
0.0191143807023763
0.0194195564836263
0.0239971932023763
0.0239971932023763
0.0593975819647312
0.0258282478898763
0.0348309315741062
0.0430706776678562
0.0201824959367513
0.0279644783586263
0.0348309315741062
0.0416973866522312
0.0372723378241062
0.0247601326555013
0.0218609627336263
0.0426129139959812
0.0346783436834812
0.0520733632147312
0.0366619862616062
0.0288800057023763
0.0111798094585537
0.0015667724655941
0.0079754637554287
0.0236920174211263
0.0288800057023763
0.0383404530584812
0.0523785389959812
0.0220135506242513
0.0140789793804287
0.0082806395366787
0.0075177000835537
0.0258282478898763
0.0369671620428562
0.0374249257147312
0.0410870350897312
0.0314739979803562
0.0243023689836263
0.0217083748430013
0.0227764900773763
0.0198773201555013
0.0256756599992513
0.0374249257147312
0.0389508046209812
0.0357464589178562
0.0307110603898763
0.0459698475897312
0.0246075447648763
0.0297955330461263
0.0470379628241062
0.0410870350897312
0.0442913807928562
0.0243023689836263
-0.0004168701125308
0.0145367430523037
0.0195721443742513
0.0062969969585537
0.0418499745428562
0.0352886952459812
0.0331524647772312
0.0252178963273763
0.0449017323553562
0.0346783436834812
0.0493267811834812
0.0366619862616062
0.0444439686834812
0.0185040291398763
0.0162152107805013
0.0232342537492513
0.0449017323553562
0.0375775136053562
0.0409344471991062
0.0416973866522312
0.0691632106900215
0.0507000721991062
0.0307110603898763
0.0145367430523037
-0.0011798095656558
-0.0101824952289462
-0.0347491465508937
-0.0008746337844058
0.0130108641460537
-0.0051470948383212
0.0130108641460537
0.0188092049211263
0.0273541267961263
0.0149945067241787
0.0348309315741062
0.0406292714178562
0.0168255623430013
0.0214031990617513
0.0458172596991062
0.0558880604803562
0.0305584724992513
0.0256756599992513
0.0241497810930013
0.0655011013150215
0.0668743923306465
0.0253704842180013
0.0519207753241062
0.0247601326555013
0.0349835194647312
0.0311688240617513
0.0337628163397312
0.0236920174211263
0.0217083748430013
0.0355938710272312
0.0333050526678562
0.0523785389959812
0.0253704842180013
0.0200299080461263
0.0172833260148763
0.0152996825054287
0.0401715077459812
0.0426129139959812
0.0093487547710537
0.0124005125835537
-0.0130816651508212
0.0142315672710537
0.0299481209367513
0.0435284413397312
0.0194195564836263
0.0215557869523763
0.0421551503241062
0.0581768788397312
0.0320843495428562
0.0217083748430013
0.0281170662492513
0.0261334236711263
0.0329998768866062
0.0374249257147312
0.0246075447648763
0.0329998768866062
0.0293377693742513
0.0340679921209812
0.0346783436834812
0.0262860115617513
0.0348309315741062
0.0236920174211263
-0.0005694580031558
0.0172833260148763
0.0314739979803562
0.0432232655584812
0.0209454353898763
0.0651959255337715
0.0386456288397312
0.0358990468084812
0.0125531004741787
0.0217083748430013
0.0241497810930013
0.0307110603898763
0.0131634520366787
0.0439862050116062
0.0290325935930013
0.0305584724992513
0.0462750233709812
0.0328472889959812
0.0342205800116062
0.0313214100897312
0.0297955330461263
0.0265911873430013
0.0146893309429287
0.0349835194647312
0.0429180897772312
0.0186566170305013
-0.0233050528913736
-0.0040789796039462
0.0255230721086263
0.0233868416398763
0.0348309315741062
0.0313214100897312
0.0308636482805013
0.0423077382147312
0.0453594960272312
0.0586346425116062
0.0244549568742513
0.0195721443742513
0.0529888905584812
0.0555828846991062
0.0415447987616062
0.0250653084367513
0.0310162361711263
0.0304058846086263
0.0317791737616062
0.0197247322648763
-0.0165911857038736
0.0430706776678562
0.0301007088273763
0.0233868416398763
0.0415447987616062
0.0325421132147312
0.0333050526678562
0.0400189198553562
0.0392559804022312
0.0210980232805013
0.0282696541398763
0.0137738035991787
0.0346783436834812
0.0445965565741062
0.0429180897772312
0.0308636482805013
0.0268963631242513
0.0046185301616787
0.0247601326555013
0.0310162361711263
0.0391033925116062
0.0337628163397312
0.0517681874334812
0.0090435789898037
0.0525311268866062
0.0380352772772312
0.0035504149273037
0.0272015389055013
0.0384930409491062
0.0252178963273763
0.0165203865617513
0.0232342537492513
0.0247601326555013
0.0564984120428562
0.0333050526678562
0.0209454353898763
0.0464276112616062
0.0453594960272312
0.0474957264959812
0.0384930409491062
0.0198773201555013
0.0307110603898763
0.0204876717180013
0.0174359139055013
0.0204876717180013
0.0394085682928562
0.0226239021867513
0.0284222420305013
0.0210980232805013
0.0317791737616062
0.0424603261053562
0.0589398182928562
0.0522259511053562
0.0737408474087715
0.0676373317837715
0.0659588649868965
0.0772503688931465
0.0622967518866062
0.0490216054022312
0.0423077382147312
0.0523785389959812
0.0633648708462715
0.0746563747525215
0.0819805935025215
0.0268963631242513
0.0078228758648037
0.0210980232805013
-0.0341387949883937
-0.0608416758477687
-0.0907488986849784
-0.0855609104037284
-0.0863238498568534
-0.0408526621758937
-0.0512286387383937
-0.0149127198383212
0.0198773201555013
0.0139263914898037
0.0247601326555013
0.0322369374334812
0.0259808357805013
0.0340679921209812
0.0439862050116062
0.0442913807928562
0.0363568104803562
0.0375775136053562
0.0374249257147312
0.0398663319647312
0.0331524647772312
0.0166729744523763
0.0474957264959812
0.0464276112616062
0.0479534901678562
0.0549725331366062
0.0581768788397312
0.0702313259243965
0.0740460231900215
0.0526837147772312
0.0136212157085537
0.0122479246929287
0.0325421132147312
0.0391033925116062
0.0358990468084812
0.0543621815741062
0.0346783436834812
0.0438336171209812
0.0256756599992513
-0.0275775138288736
-0.0442095957696437
-0.0318499766290187
0.0290325935930013
0.0358990468084812
0.0554302968084812
0.0712994411587715
-0.0106402589008212
-0.0181170646101236
0.0062969969585537
0.0461224354803562
0.0404766835272312
0.0600079335272312
0.0677899196743965
0.0783184841275215
0.0519207753241062
-0.0059100342914462
0.0099591063335537
0.0168255623430013
0.0203350838273763
0.0368145741522312
0.0505474843084812
0.0345257557928562
0.0433758534491062
0.0362042225897312
0.0046185301616787
0.0050762938335537
0.0281170662492513
0.0670269802212715
0.0433758534491062
0.0241497810930013
0.0778607204556465
0.0676373317837715
0.0615338124334812
0.0818280056118965
0.0365093983709812
0.0525311268866062
0.0629071071743965
0.0513104237616062
0.0174359139055013
0.0027874754741787
0.0015667724655941
-0.0233050528913736
-0.0429888926446437
-0.0420733653008937
-0.0379534922540187
-0.0233050528913736
-0.0196429435163736
-0.0114031983539462
0.0139263914898037
0.0754193142056465
0.1460675001144409
0.0894574001431465
0.0813702419400215
0.0593975819647312
0.0729779079556465
0.0062969969585537
-0.0435992442071437
-0.0414630137383937
-0.0341387949883937
-0.0048419190570712
0.0371197499334812
0.0598553456366062
0.0844219997525215
0.1359966993331909
0.1802471876144409
0.1744488477706909
0.1332501173019409
0.0845745876431465
0.0537518300116062
0.0246075447648763
-0.0529071055352687
-0.0759478732943534
-0.0838824436068534
-0.126912236213684
-0.1064654514193534
-0.0161334220319986
0.0824383571743965
0.0571087636053562
-0.0025531006976962
0.0014141845749691
0.0453594960272312
0.0172833260148763
0.0206402596086263
0.0250653084367513
0.0449017323553562
0.0229290779680013
0.0143841551616787
0.0336102284491062
0.0401715077459812
0.0033978270366787
-0.0669451877474784
-0.0352069102227687
0.0107220457866787
0.0261334236711263
0.0290325935930013
0.0464276112616062
0.0693157985806465
0.0897625759243965
0.1105145290493965
0.1225689724087715
0.1350811719894409
0.1826885938644409
0.1811627149581909
0.1678875684738159
0.1031903102993965
0.0719097927212715
0.0212506111711263
-0.0164385978132486
-0.0068255616351962
-0.0423785410821437
-0.0553485117852687
-0.0301715079694986
-0.0742694064974784
-0.0593157969415187
-0.0556536875665187
-0.0863238498568534
-0.0532122813165187
-0.0506182871758937
-0.0342913828790187
-0.0332232676446437
-0.0001116943312808
0.0478009022772312
0.0668743923306465
0.1363018751144409
0.2215985059738159
0.2008465528488159
0.1857403516769409
0.1860455274581909
0.0894574001431465
0.0046185301616787
-0.0555010996758937
-0.0451251231133937
-0.0707598850131034
-0.1145526096224784
-0.0776263400912284
-0.0455828867852687
-0.0765582248568534
-0.0199481192976236
0.0085858153179287
-0.0179644767194986
-0.0236102286726236
-0.0736590549349784
-0.0220843497663736
0.0012615966843441
0.0264385994523763
0.0844219997525215
0.1596478223800659
0.2139691114425659
0.2110699415206909
0.2505902051925659
0.2040508985519409
0.0897625759243965
0.0610760487616062
0.0795391872525215
0.0398663319647312
-0.0225421134382486
-0.0710650607943534
-0.0699969455599784
-0.0130816651508212
0.0365093983709812
0.0299481209367513
-0.0815936252474784
-0.151936650276184
-0.0294085685163736
0.0917462185025215
0.1713970899581909
0.1585797071456909
0.1030377224087715
0.0566509999334812
0.0687054470181465
0.0378826893866062
-0.0365802012383937
-0.0823565647006034
-0.0156756583601236
0.0313214100897312
0.0078228758648037
-0.0320025645196437
-0.0516864024102687
0.0053814696148037
-0.0121661378070712
-0.0040789796039462
0.0098065184429287
0.0389508046209812
0.0517681874334812
0.0275067146867513
0.0432232655584812
0.0827435329556465
0.0868634060025215
0.0900677517056465
0.0601605214178562
0.0429180897772312
0.0067547606304287
-0.0249835196882486
0.0082806395366787
0.0111798094585537
-0.0031634522601962
0.0459698475897312
0.0212506111711263
-0.0585528574883937
-0.0738116428256034
-0.0823565647006034
-0.1026507541537284
-0.0600787363946437
-0.0376483164727687
-0.0278826896101236
0.0342205800116062
0.0470379628241062
0.0883892849087715
0.1074627712368965
0.0978497341275215
0.1123455837368965
0.1219586208462715
0.1140240505337715
0.0954083278775215
0.0482586659491062
0.0449017323553562
0.0656536892056465
0.0810650661587715
0.0717572048306465
0.0700787380337715
-0.0147601319476962
-0.0150653077289462
0.0143841551616787
-0.0136920167133212
0.0026348875835537
-0.0001116943312808
-0.0179644767194986
0.0398663319647312
0.0546673573553562
0.0766400173306465
0.0294903572648763
0.0499371327459812
0.0394085682928562
0.0301007088273763
0.0545147694647312
0.0748089626431465
0.0336102284491062
0.0319317616522312
0.0070599364116787
0.0203350838273763
0.0589398182928562
0.1277569532394409
0.1392010450363159
0.1005963161587715
0.0174359139055013
-0.0802203342318534
-0.146290898323059
-0.157277226448059
-0.0948687717318534
-0.0295611564069986
0.0136212157085537
0.0636700466275215
0.0323895253241062
0.0461224354803562
0.0545147694647312
0.0603131093084812
0.0581768788397312
0.0557354725897312
0.0847271755337715
0.0603131093084812
0.0494793690741062
0.0487164296209812
0.0555828846991062
0.0603131093084812
0.0433758534491062
0.0502423085272312
0.0363568104803562
0.0375775136053562
0.0392559804022312
0.0450543202459812
0.0583294667303562
0.0587872304022312
0.0456646718084812
0.0511578358709812
0.0352886952459812
0.0183514412492513
0.0239971932023763
0.0493267811834812
0.0470379628241062
0.0535992421209812
0.0442913807928562
0.0653485134243965
0.0285748299211263
0.0456646718084812
0.0491741932928562
0.0529888905584812
0.0282696541398763
0.0204876717180013
0.0224713142961263
0.0264385994523763
0.0328472889959812
0.0250653084367513
0.0413922108709812
0.0629071071743965
0.0421551503241062
0.0169781502336263
-0.0028582764789462
0.0003460693405941
0.0125531004741787
0.0116375731304287
0.0204876717180013
0.0204876717180013
0.0259808357805013
0.0583294667303562
0.0287274178117513
0.0210980232805013
0.0340679921209812
0.0325421132147312
0.0239971932023763
0.0380352772772312
0.0337628163397312
0.0279644783586263
0.0284222420305013
0.0088909910991787
-0.0086566163226962
0.0125531004741787
0.0313214100897312
0.0355938710272312
0.0340679921209812
0.0479534901678562
0.0209454353898763
0.0238446053117513
0.0317791737616062
0.0207928474992513
0.0067547606304287
0.0334576405584812
0.0418499745428562
0.0255230721086263
0.0325421132147312
0.0265911873430013
0.0284222420305013
0.0357464589178562
0.0534466542303562
0.0398663319647312
0.0391033925116062
0.0267437752336263
0.0349835194647312
0.0186566170305013
0.0583294667303562
0.0162152107805013
0.0371197499334812
0.0362042225897312
0.0276593025773763
0.0180462654680013
0.0053814696148037
0.0355938710272312
0.0217083748430013
0.0345257557928562
0.0192669685930013
0.0285748299211263
0.0340679921209812
0.0452069081366062
0.0226239021867513
0.0058392332866787
0.0267437752336263
0.0284222420305013
0.0319317616522312
0.0267437752336263
0.0348309315741062
0.0250653084367513
0.0291851814836263
0.0232342537492513
0.0224713142961263
0.0220135506242513
0.0340679921209812
0.0323895253241062
0.0267437752336263
0.0285748299211263
0.0307110603898763
0.0348309315741062
0.0319317616522312
0.0363568104803562
0.0325421132147312
0.0342205800116062
0.0691632106900215
0.0296429451555013
0.0206402596086263
0.0328472889959812
0.0299481209367513
0.0259808357805013
0.0348309315741062
0.0181988533586263
0.0169781502336263
0.0433758534491062
0.0383404530584812
0.0282696541398763
0.0357464589178562
0.0207928474992513
0.0265911873430013
0.0270489510148763
0.0124005125835537
-0.0049945069476962
0.0021771239116787
0.0050762938335537
0.0151470946148037
0.0232342537492513
0.0201824959367513
0.0282696541398763
-0.0098773194476962
0.0308636482805013
0.0577191151678562
0.0194195564836263
0.0270489510148763
0.0229290779680013
0.0571087636053562
0.0316265858709812
0.0322369374334812
0.0241497810930013
0.0172833260148763
0.0188092049211263
0.0159100349992513
0.0278118904680013
0.0406292714178562
0.0340679921209812
0.0421551503241062
0.0207928474992513
0.0337628163397312
0.0252178963273763
0.0166729744523763
0.0166729744523763
0.0174359139055013
0.0233868416398763
0.0268963631242513
0.0223187264055013
0.0311688240617513
0.0680950954556465
0.0464276112616062
0.0236920174211263
0.0207928474992513
0.0088909910991787
0.0224713142961263
0.0259808357805013
0.0276593025773763
0.0316265858709812
0.0247601326555013
0.0386456288397312
0.0647381618618965
0.0250653084367513
0.0119427489116787
0.0218609627336263
0.0250653084367513
0.0212506111711263
0.0259808357805013
0.0329998768866062
0.0447491444647312
0.0313214100897312
0.0328472889959812
0.0389508046209812
0.0423077382147312
0.0406292714178562
0.0328472889959812
0.0371197499334812
0.0430706776678562
0.0134686278179287
0.0455120839178562
0.0439862050116062
0.0461224354803562
0.0407818593084812
0.0427655018866062
0.0264385994523763
0.0474957264959812
0.0479534901678562
0.0461224354803562
0.0336102284491062
0.0366619862616062
0.0314739979803562
0.0301007088273763
0.0389508046209812
0.0426129139959812
0.0424603261053562
0.0349835194647312
0.0421551503241062
0.0307110603898763
0.0392559804022312
0.0297955330461263
0.0316265858709812
0.0326947011053562
0.0299481209367513
0.0255230721086263
0.0186566170305013
0.0252178963273763
0.0288800057023763
0.0015667724655941
0.0143841551616787
0.0270489510148763
0.0273541267961263
0.0233868416398763
0.0183514412492513
0.0238446053117513
0.0180462654680013
0.0096539305523037
0.0040081785991787
0.0021771239116787
0.0276593025773763
0.0278118904680013
0.0464276112616062
0.0192669685930013
0.0139263914898037
0.0070599364116787
0.0029400633648037
0.0062969969585537
0.0093487547710537
0.0223187264055013
0.0223187264055013
0.0247601326555013
0.0606182850897312
0.0206402596086263
0.0127056883648037
0.0128582762554287
0.0210980232805013
0.0168255623430013
0.0249127205461263
0.0369671620428562
0.0247601326555013
0.0293377693742513
0.0325421132147312
0.0352886952459812
0.0224713142961263
0.0223187264055013
0.0294903572648763
0.0279644783586263
0.0302532967180013
0.0139263914898037
0.0172833260148763
0.0365093983709812
0.0265911873430013
0.0334576405584812
0.0340679921209812
0.0493267811834812
0.0358990468084812
0.0282696541398763
0.0246075447648763
0.0137738035991787
0.0232342537492513
0.0275067146867513
0.0273541267961263
0.0227764900773763
0.0336102284491062
-0.0033160401508212
0.0294903572648763
0.0316265858709812
0.0279644783586263
0.0276593025773763
0.0259808357805013
0.0333050526678562
0.0400189198553562
0.0362042225897312
0.0310162361711263
0.0333050526678562
0.0329998768866062
0.0265911873430013
0.0243023689836263
0.0229290779680013
0.0331524647772312
0.0305584724992513
0.0178936775773763
0.0186566170305013
0.0223187264055013
-0.0020953370258212
0.0369671620428562
0.0272015389055013
0.0276593025773763
0.0166729744523763
0.0323895253241062
0.0285748299211263
0.0001934814499691
0.0124005125835537
0.0185040291398763
0.0415447987616062
0.0259808357805013
0.0265911873430013
0.0076702879741787
0.0114849852398037
0.0230816658586263
0.0175885017961263
0.0328472889959812
0.0120953368023037
0.0247601326555013
0.0258282478898763
0.0218609627336263
0.0394085682928562
0.0333050526678562
0.0316265858709812
0.0345257557928562
0.0313214100897312
0.0215557869523763
0.0331524647772312
0.0400189198553562
0.0358990468084812
0.0273541267961263
0.0339154042303562
0.0354412831366062
0.0355938710272312
0.0297955330461263
0.0421551503241062
0.0336102284491062
0.0223187264055013
0.0253704842180013
0.0340679921209812
-0.0092669678851962
0.0307110603898763
0.0253704842180013
0.0293377693742513
0.0262860115617513
0.0319317616522312
0.0531414784491062
0.0371197499334812
0.0676373317837715
0.0362042225897312
0.0328472889959812
0.0258282478898763
0.0252178963273763
0.0183514412492513
0.0183514412492513
0.0331524647772312
0.0357464589178562
0.0241497810930013
0.0325421132147312
0.0183514412492513
0.0275067146867513
0.0343731679022312
0.0169781502336263
0.0386456288397312
0.0352886952459812
0.0342205800116062
0.0252178963273763
0.0340679921209812
0.0394085682928562
0.0273541267961263
0.0261334236711263
0.0336102284491062
0.0325421132147312
0.0232342537492513
0.0250653084367513
0.0304058846086263
0.0236920174211263
0.0304058846086263
0.0212506111711263
0.0241497810930013
0.0314739979803562
0.0326947011053562
0.0224713142961263
0.0331524647772312
0.0261334236711263
0.0331524647772312
0.0288800057023763
0.0362042225897312
0.0316265858709812
0.0497845448553562
0.0311688240617513
0.0279644783586263
0.0511578358709812
0.0206402596086263
0.0133160399273037
0.0397137440741062
0.0346783436834812
0.0406292714178562
0.0378826893866062
0.0023297118023037
0.0197247322648763
0.0204876717180013
0.0084332274273037
0.0215557869523763
0.0200299080461263
0.0218609627336263
0.0371197499334812
0.0206402596086263
0.0172833260148763
0.0481060780584812
0.0218609627336263
0.0365093983709812
0.0276593025773763
0.0305584724992513
0.0395611561834812
0.0415447987616062
0.0243023689836263
0.0214031990617513
0.0302532967180013
0.0308636482805013
0.0316265858709812
0.0027874754741787
0.0365093983709812
0.0328472889959812
0.0294903572648763
0.0267437752336263
0.0267437752336263
0.0203350838273763
0.0281170662492513
-0.0016375732375308
0.0301007088273763
0.0389508046209812
0.0276593025773763
0.0247601326555013
0.0194195564836263
0.0232342537492513
0.0250653084367513
0.0191143807023763
0.0406292714178562
0.0372723378241062
0.0447491444647312
0.0581768788397312
0.0265911873430013
0.0285748299211263
0.0281170662492513
0.0227764900773763
0.0265911873430013
0.0299481209367513
0.0465801991522312
0.0243023689836263
0.0209454353898763
0.0259808357805013
0.0195721443742513
0.0267437752336263
0.0197247322648763
0.0351361073553562
0.0423077382147312
0.0429180897772312
0.0308636482805013
0.0244549568742513
0.0235394295305013
0.0398663319647312
0.0281170662492513
0.0273541267961263
0.0156048582866787
0.0311688240617513
0.0546673573553562
0.0366619862616062
0.0249127205461263
0.0137738035991787
0.0366619862616062
0.0223187264055013
0.0284222420305013
0.0241497810930013
0.0331524647772312
0.0275067146867513
0.0229290779680013
0.0305584724992513
0.0043133543804287
0.0214031990617513
0.0294903572648763
0.0297955330461263
0.0307110603898763
0.0256756599992513
0.0265911873430013
0.0247601326555013
0.0351361073553562
0.0250653084367513
0.0261334236711263
0.0253704842180013
0.0038555907085537
0.0685528591275215
0.0105694578960537
0.0185040291398763
0.0241497810930013
0.0256756599992513
0.0085858153179287
0.0267437752336263
0.0362042225897312
0.0471905507147312
0.0323895253241062
0.0110272215679287
0.0082806395366787
0.0226239021867513
0.0413922108709812
0.0243023689836263
0.0326947011053562
0.0278118904680013
0.0293377693742513
0.0284222420305013
0.0401715077459812
0.0432232655584812
-0.0141497803851962
0.0687054470181465
0.0322369374334812
0.0185040291398763
0.0320843495428562
0.0316265858709812
0.0148419188335537
0.0099591063335537
0.0122479246929287
0.0380352772772312
0.0204876717180013
0.0111798094585537
-0.0068255616351962
0.0218609627336263
0.0171307381242513
0.0287274178117513
0.0284222420305013
0.0256756599992513
0.0381878651678562
0.0363568104803562
0.0253704842180013
0.0175885017961263
0.0162152107805013
0.0662640407681465
0.0481060780584812
0.0297955330461263
0.0262860115617513
0.0539044179022312
0.0485638417303562
0.0040081785991787
0.0043133543804287
0.0215557869523763
0.0241497810930013
0.0278118904680013
0.0302532967180013
0.0725201442837715
0.0294903572648763
0.0340679921209812
0.0316265858709812
0.0481060780584812
0.0284222420305013
0.0423077382147312
0.0476483143866062
0.0641278102993965
0.0687054470181465
0.0026348875835537
0.0218609627336263
0.0124005125835537
0.0017193603562191
0.0154522703960537
-0.0008746337844058
0.0340679921209812
0.0264385994523763
0.0270489510148763
0.0238446053117513
0.0194195564836263
0.0203350838273763
0.0230816658586263
0.0444439686834812
0.0383404530584812
0.0684002712368965
0.0319317616522312
0.0221661385148763
0.0050762938335537
0.0159100349992513
0.0301007088273763
0.0360516346991062
0.0545147694647312
0.0355938710272312
0.0139263914898037
0.0137738035991787
0.0149945067241787
0.0069073485210537
0.0445965565741062
0.0436810292303562
-0.0008746337844058
-0.0001116943312808
0.0177410896867513
0.0148419188335537
0.0584820546209812
0.0563458241522312
0.0453594960272312
0.0349835194647312
0.0540570057928562
0.0595501698553562
0.0801495388150215
0.0708416774868965
0.0301007088273763
0.0093487547710537
-0.0159808341413736
-0.0260516349226236
-0.0052996827289462
0.0152996825054287
-0.0107928467914462
0.0166729744523763
0.0099591063335537
0.0201824959367513
0.0108746336773037
0.0214031990617513
0.0162152107805013
0.0287274178117513
0.0371197499334812
0.0484112538397312
0.0464276112616062
0.0496319569647312
0.0432232655584812
0.0273541267961263
0.0400189198553562
0.0386456288397312
0.0500897206366062
0.0459698475897312
0.0320843495428562
0.0410870350897312
0.0459698475897312
0.0731304958462715
0.0256756599992513
0.0301007088273763
0.0352886952459812
0.0029400633648037
0.0075177000835537
-0.0136920167133212
-0.0072833253070712
0.0160626228898763
0.0159100349992513
0.0542095936834812
0.0375775136053562
0.0484112538397312
0.0287274178117513
0.0275067146867513
0.0261334236711263
0.0230816658586263
0.0458172596991062
0.0427655018866062
0.0297955330461263
0.0273541267961263
0.0250653084367513
0.0145367430523037
0.0241497810930013
0.0159100349992513
0.0299481209367513
0.0273541267961263
0.0180462654680013
0.0217083748430013
0.0410870350897312
0.0476483143866062
0.0381878651678562
0.0354412831366062
0.0189617928117513
0.0378826893866062
0.0275067146867513
0.0340679921209812
0.0200299080461263
0.0458172596991062
0.0294903572648763
0.0368145741522312
0.0249127205461263
0.0323895253241062
0.0238446053117513
0.0255230721086263
0.0322369374334812
0.0246075447648763
0.0610760487616062
0.0223187264055013
0.0384930409491062
0.0296429451555013
0.0255230721086263
0.0329998768866062
0.0171307381242513
0.0322369374334812
-0.0014849853469058
0.0311688240617513
0.0471905507147312
0.0420025624334812
0.0566509999334812
0.0517681874334812
0.0194195564836263
0.0358990468084812
0.0661114528775215
0.0474957264959812
0.0435284413397312
0.0194195564836263
0.0304058846086263
0.0145367430523037
0.0130108641460537
-0.0109454346820712
0.0221661385148763
0.0206402596086263
0.0879315212368965
0.0532940663397312
0.0420025624334812
0.0528363026678562
0.0301007088273763
0.0084332274273037
0.0316265858709812
0.0571087636053562
0.0795391872525215
0.0572613514959812
0.0273541267961263
0.0101116942241787
4.089355934411287e-05
0.0098065184429287
0.0125531004741787
0.0180462654680013
0.0111798094585537
-0.0265093985944986
0.0285748299211263
0.0430706776678562
0.0651959255337715
0.0259808357805013
0.0291851814836263
0.0334576405584812
0.0377301014959812
0.0188092049211263
0.0279644783586263
0.0362042225897312
0.0264385994523763
0.0255230721086263
-0.0045367432758212
0.0566509999334812
0.0488690175116062
0.0439862050116062
0.0481060780584812
0.0426129139959812
0.0391033925116062
0.0412396229803562
0.0185040291398763
0.0075177000835537
0.0217083748430013
0.0259808357805013
0.0117901610210537
0.0111798094585537
0.0156048582866787
0.0246075447648763
0.0177410896867513
0.0282696541398763
0.0325421132147312
0.0247601326555013
0.0363568104803562
0.0415447987616062
0.0716046169400215
0.0787762477993965
0.0386456288397312
0.0091961668804287
0.0087384032085537
0.0293377693742513
0.0230816658586263
0.0079754637554287
0.0221661385148763
0.0166729744523763
0.0152996825054287
0.0171307381242513
0.0467327870428562
0.0511578358709812
0.0682476833462715
0.0282696541398763
0.0482586659491062
0.0830487087368965
0.0203350838273763
0.0079754637554287
-0.0001116943312808
-0.0080462647601962
0.0433758534491062
0.1115826442837715
0.0865582302212715
0.0284222420305013
0.0009564209030941
0.0381878651678562
0.0128582762554287
0.0040081785991787
-0.0139971924945712
-0.0272723380476236
0.0006512451218441
-0.0069781495258212
0.0009564209030941
0.0021771239116787
-0.0197955314069986
-0.0020953370258212
-0.0110980225726962
-0.0489398203790187
0.0206402596086263
0.0090435789898037
0.0296429451555013
0.0290325935930013
0.0366619862616062
0.0313214100897312
0.0337628163397312
0.0207928474992513
0.0316265858709812
0.0420025624334812
0.0502423085272312
0.0656536892056465
0.0204876717180013
0.0395611561834812
0.0278118904680013
0.0323895253241062
0.0535992421209812
0.0304058846086263
0.0308636482805013
0.0267437752336263
0.0238446053117513
0.0235394295305013
-0.0063677979633212
0.0383404530584812
0.0273541267961263
0.0285748299211263
0.0154522703960537
0.0438336171209812
0.0468853749334812
0.0641278102993965
0.0481060780584812
0.0526837147772312
0.0578717030584812
0.0523785389959812
0.0279644783586263
0.0218609627336263
0.0154522703960537
0.0270489510148763
0.0195721443742513
0.0337628163397312
0.0394085682928562
0.0482586659491062
0.0424603261053562
0.0323895253241062
-0.0045367432758212
0.0131634520366787
0.0021771239116787
0.0175885017961263
0.0140789793804287
0.0165203865617513
0.0297955330461263
0.0218609627336263
0.0136212157085537
-0.0045367432758212
0.0087384032085537
0.0236920174211263
0.0394085682928562
0.0478009022772312
0.0365093983709812
0.0578717030584812
0.0760296657681465
0.0996807888150215
0.0500897206366062
0.0194195564836263
0.0117901610210537
0.0265911873430013
0.0175885017961263
0.0064495848491787
-0.0165911857038736
-0.0228472892194986
0.0032452391460537
0.0482586659491062
0.0551251210272312
0.0461224354803562
0.0644329860806465
0.0233868416398763
0.0535992421209812
0.0455120839178562
0.0365093983709812
0.0272015389055013
-0.0051470948383212
-0.0182696525007486
0.0061444090679287
0.0270489510148763
0.0223187264055013
0.0369671620428562
0.0229290779680013
0.0632122829556465
0.0600079335272312
0.0508526600897312
0.0348309315741062
0.0638226345181465
0.0590924061834812
0.0641278102993965
0.0090435789898037
0.0514630116522312
0.0819805935025215
0.0897625759243965
0.0479534901678562
0.0415447987616062
0.0111798094585537
0.0102642821148037
0.0177410896867513
-0.0101824952289462
-0.0056048585101962
-0.0004168701125308
0.0362042225897312
-0.0088092042133212
-0.0826617404818534
-0.0683184787631034
-0.0364276133477687
-0.0239154044538736
-0.0233050528913736
-0.0208636466413736
0.0278118904680013
0.0349835194647312
0.0410870350897312
0.0241497810930013
0.0233868416398763
0.0519207753241062
0.0676373317837715
0.0569561757147312
0.0716046169400215
0.1074627712368965
0.0780133083462715
0.0331524647772312
0.0532940663397312
0.0366619862616062
0.0349835194647312
0.0302532967180013
0.0433758534491062
0.0546673573553562
0.0764874294400215
0.0699261501431465
0.0935772731900215
0.1280621290206909
0.0954083278775215
0.1117352321743965
0.1065472438931465
0.0507000721991062
-0.0315448008477687
-0.0866290256381034
-0.132252812385559
-0.130574345588684
-0.1144000217318534
-0.0545855723321437
-0.0420733653008937
-0.0382586680352687
0.0056866453960537
0.0462750233709812
0.0258282478898763
0.0316265858709812
0.0323895253241062
0.0386456288397312
0.0548199452459812
0.0421551503241062
0.1976422071456909
0.1256207227706909
0.0270489510148763
-0.0643511936068534
0.1491192579269409
0.2003887891769409
0.2295330762863159
0.2502850294113159
0.1570538282394409
0.1124981716275215
0.0455120839178562
-0.0844927951693534
-0.183980107307434
-0.2662249803543091
-0.4124041795730591
-0.3403826951980591
-0.240895390510559
-0.161397099494934
-0.0632830783724784
-0.0371905528008937
-0.0002642822219058
0.0272015389055013
0.0421551503241062
0.0226239021867513
0.0323895253241062
0.0745037868618965
0.1094464138150215
0.1346234083175659
0.1668194532394409
0.1848248243331909
0.1193646267056465
0.0954083278775215
0.1370648145675659
0.1994732618331909
0.1749066114425659
0.1074627712368965
0.0668743923306465
-0.0081988526508212
-0.0675555393099784
-0.125081181526184
-0.0802203342318534
-0.0652667209506034
-0.0512286387383937
-0.0428363047540187
-0.0379534922540187
0.0224713142961263
0.0304058846086263
0.0546673573553562
0.0491741932928562
0.0342205800116062
0.0810650661587715
0.0432232655584812
0.0925091579556465
0.2086285352706909
0.2608135938644409
0.2759197950363159
0.2196148633956909
0.0940350368618965
0.0764874294400215
0.0514630116522312
-0.0381060801446437
-0.0614520274102687
-0.0788470432162284
-0.134694218635559
-0.0745745822787284
-0.0924273654818534
-0.0883074924349784
-0.0503131113946437
-0.0860186740756034
-0.0812884494662284
-0.0582476817071437
-0.0339862070977687
-0.0362750254571437
0.0033978270366787
0.0838116481900215
0.1112774685025215
0.1051739528775215
0.0951031520962715
0.0841168239712715
0.1042584255337715
0.0636700466275215
0.0232342537492513
0.0618389882147312
0.1198223903775215
0.0178936775773763
-0.0246783439069986
-0.0278826896101236
0.0082806395366787
0.0250653084367513
-0.0052996827289462
-0.0139971924945712
-0.0826617404818534
-0.0272723380476236
0.0354412831366062
0.0769451931118965
0.0720623806118965
0.0709942653775215
0.0708416774868965
0.0639752224087715
0.0549725331366062
0.0583294667303562
0.0709942653775215
0.0529888905584812
0.0484112538397312
0.0613812245428562
0.0723675563931465
0.0780133083462715
0.0673321560025215
0.0966290310025215
0.0903729274868965
0.0835064724087715
0.0702313259243965
0.0857952907681465
0.0644329860806465
0.0157574471086263
0.0032452391460537
-0.0228472892194986
-0.0306292716413736
-0.0002642822219058
0.0400189198553562
0.0302532967180013
0.0096539305523037
0.0380352772772312
0.0066021727398037
0.0001934814499691
0.0139263914898037
0.0078228758648037
0.0282696541398763
0.0253704842180013
0.0328472889959812
-0.0260516349226236
0.0503948964178562
0.0386456288397312
0.0523785389959812
0.0564984120428562
0.0613812245428562
0.0500897206366062
0.0549725331366062
0.0348309315741062
0.0174359139055013
0.0243023689836263
0.0394085682928562
0.0334576405584812
0.0232342537492513
0.0677899196743965
0.0581768788397312
0.0722149685025215
0.0314739979803562
0.0023297118023037
0.0430706776678562
0.0696209743618965
0.0355938710272312
0.0091961668804287
-0.0039263917133212
0.0117901610210537
0.0224713142961263
0.0430706776678562
0.0351361073553562
0.0085858153179287
-0.0091143799945712
0.0085858153179287
0.0172833260148763
0.0207928474992513
0.0137738035991787
0.0229290779680013
0.0127056883648037
0.0384930409491062
0.0320843495428562
0.0438336171209812
0.0369671620428562
0.0328472889959812
0.0471905507147312
0.0282696541398763
0.0297955330461263
0.0342205800116062
0.0462750233709812
0.0287274178117513
0.0183514412492513
0.0272015389055013
0.0352886952459812
0.0516155995428562
0.0268963631242513
0.0360516346991062
0.0333050526678562
0.0368145741522312
0.0415447987616062
0.0424603261053562
0.0413922108709812
0.0258282478898763
0.0232342537492513
0.0575665272772312
0.0301007088273763
0.0311688240617513
0.0249127205461263
0.0304058846086263
0.0458172596991062
0.0456646718084812
0.0308636482805013
0.0320843495428562
0.0453594960272312
0.0279644783586263
0.0426129139959812
0.0523785389959812
0.0381878651678562
0.0308636482805013
0.0313214100897312
0.0191143807023763
0.0273541267961263
0.0293377693742513
0.0389508046209812
0.0319317616522312
0.0493267811834812
0.0258282478898763
0.0217083748430013
0.0291851814836263
0.0377301014959812
0.0377301014959812
0.0340679921209812
0.0352886952459812
0.0285748299211263
0.0256756599992513
0.0169781502336263
0.0450543202459812
0.0310162361711263
0.0365093983709812
0.0294903572648763
0.0307110603898763
0.0317791737616062
0.0217083748430013
0.0401715077459812
0.0198773201555013
0.0230816658586263
0.0070599364116787
0.0357464589178562
0.0284222420305013
0.0342205800116062
0.0191143807023763
0.0265911873430013
0.0275067146867513
0.0333050526678562
0.0255230721086263
0.0551251210272312
0.0371197499334812
0.0420025624334812
0.0166729744523763
0.0256756599992513
0.0201824959367513
0.0375775136053562
0.0387982167303562
0.0256756599992513
0.0288800057023763
0.0236920174211263
0.0345257557928562
0.0310162361711263
0.0345257557928562
0.0272015389055013
0.0337628163397312
0.0119427489116787
0.0168255623430013
0.0310162361711263
0.0520733632147312
0.0253704842180013
0.0426129139959812
0.0181988533586263
0.0433758534491062
0.0160626228898763
0.0099591063335537
0.0098065184429287
0.0227764900773763
0.0319317616522312
0.0296429451555013
0.0272015389055013
0.0197247322648763
0.0163677986711263
0.0146893309429287
0.0081280516460537
0.0163677986711263
0.0587872304022312
0.0340679921209812
0.0297955330461263
0.0218609627336263
0.0233868416398763
0.0317791737616062
0.0424603261053562
0.0401715077459812
0.0209454353898763
0.0264385994523763
0.0304058846086263
0.0325421132147312
0.0290325935930013
0.0331524647772312
0.0429180897772312
0.0319317616522312
0.0391033925116062
0.0261334236711263
0.0395611561834812
0.0183514412492513
0.0357464589178562
0.0304058846086263
0.0212506111711263
0.0516155995428562
-0.0120135499164462
