time,RGLTMED,RRF,RADDLONG,RST,RTA,RGM,LGLTMED,LRF,LADDLONG,LST,LTA,LGM
0.0,0.0024257100409218863,0.02099602555904804,0.013377620023318769,0.023569396869728247,0.014903479730527967,0.10613311569247776,0.005133304554433698,0.013610256670205772,0.0006411624232710865,0.07900394306780768,0.3387450290732087,0.03544996268517277
0.001,0.0028845135133013697,0.01951440814077986,0.012330912312482161,0.02449554091437082,0.009032920222563719,0.11730159115158398,0.0055506070070245935,0.014334363254911804,0.00013122486261039318,0.08481369116359451,0.3161973431968585,0.03286211060058205
0.002,0.0033438324968679584,0.01803998860408811,0.011279941238772156,0.02542070875723171,0.003192129339006424,0.12842837197475213,0.005970057543247788,0.015063146101752295,0.0009031086033015458,0.09059322811311667,0.29368145969745735,0.030277707652433424
0.003,0.003803375409057273,0.016573602982558628,0.010225081358043567,0.026344110240847495,0.002614889086654414,0.13950480965904835,0.006391523661849217,0.015796309269745606,0.0016741018489091046,0.09633813607971514,0.2712072558533189,0.027697968652658642
0.004,0.004262852224568286,0.015116076298040498,0.009166705094682752,0.02726495101780559,0.008384163698643579,0.15052227677754287,0.006814876309495959,0.016533559600253742,0.0024438221304350295,0.10204404574422493,0.24878447648196172,0.025124093742119755
0.005,0.0047219750497937574,0.013668221459897987,0.008105182275480141,0.02818243377989974,0.014111761438713313,0.16147218038244412,0.007239990260997026,0.017274607461837597,0.003211892079817943,0.10770664481307106,0.22642272279130685,0.02255726685532027
0.006,0.005180458687083858,0.012230838194789923,0.007040879682259116,0.02909575950182412,0.01979379326735233,0.1723459753290208,0.007666744493811899,0.018019167488831846,0.0039779400376224764,0.11332168642904655,0.20413144172748296,0.019998654242679513
0.007,0.005638021185969512,0.010804712009695905,0.005974160624923275,0.030004128695937556,0.025426419767942497,0.1831351774749088,0.008095022555544973,0.018766959310534893,0.0047416006465266945,0.11888499745335991,0.18191991584504213,0.01744940305490385
0.008,0.006094384378654999,0.009390613190793116,0.004905384536274061,0.03090674267477365,0.031005856616349053,0.1938313767121974,0.00852471292313165,0.019517708268161713,0.005502515428796361,0.1243924865880366,0.15979725372368808,0.014910639993816777
0.009,0.006549274397516866,0.007989295840560325,0.00383490658980825,0.03180280481816157,0.03652837989954143,0.20442624979268229,0.008955709352502783,0.02027114611682084,0.006260333346026542,0.12984015230862742,0.137772380954098,0.012383470033678918
0.01,0.007002422172729485,0.006601496955293058,0.002763077341500568,0.03269152184205314,0.04199033126807253,0.2149115729095706,0.009387911217491059,0.021027011710015763,0.007014711339489398,0.13522409057840212,0.11585403171381146,0.009868975216753388
0.011,0.007453563908461124,0.005227935544905735,0.0016902423964304258,0.03357210506617322,0.04738812290841503,0.22527923400118255,0.009821223836779445,0.021785051664269105,0.0077653148494877455,0.14054050231707,0.09405074095272413,0.007368213526363561
0.012,0.007902441536502316,0.003869311796667447,0.000616742101039599,0.0344437716778029,0.05271824232220899,0.23552124474434072,0.010255558787693837,0.022545021001689498,0.008511818312206392,0.14578570059910195,0.07237083720607071,0.004882217840272443
0.013,0.008348803146434849,0.0025263062841597824,0.00045708873831072644,0.03530574598903582,0.05797725690043955,0.2456297522076624,0.010690834205649672,0.02330668376840881,0.009253905632591814,0.1509561175592159,0.050822436050808495,0.0024119949667081694
0.014,0.00879240339175012,0.0011995792224511312,0.0015309211099496592,0.03615726068510401,0.06316181828185999,0.25559705013823586,0.011126975068108514,0.024069813626971606,0.009991270631910085,0.15604831098502644,0.02941343421908332,4.147523521364473e-05
0.015,0.009233003871454622,0.00011023022979113436,0.0026044320242699258,0.036997558061435426,0.06826866648631368,0.2654155898586258,0.011563913461948818,0.024834194420810626,0.010723617468710075,0.16105897057945118,0.008151504379849905,0.002477240649234438
0.016,0.00967037348686409,0.001402504620856633,0.0036773047136835985,0.03782589124728014,0.0732946338151261,0.27507799075440653,0.012001588833243565,0.02559962070902871,0.011450661032067147,0.16598492387796454,0.012955909402740851,0.004894377609036553
0.017,0.010104288773364768,0.002676648808957844,0.004749228805191747,0.03864152541372337,0.0782366485122886,0.2845770503348497,0.012439948218418337,0.026365898269834813,0.012172127306053934,0.17082314180828373,0.03390159552869879,0.007291991518223783
0.018,0.010534534207043639,0.003932090517547959,0.005819900465758303,0.03944373896386646,0.0830917381817886,0.29390575385098305,0.012878946455905765,0.027132844571056716,0.012887753704619642,0.17557074388216512,0.054678578037500675,0.009669217383331156
0.019,0.010960902486075867,0.005168280843066072,0.006889022520891671,0.0402318247029382,0.08785703295796993,0.30305728345624694,0.013318546377408584,0.02790028920631692,0.01359728937612106,0.18022500301082975,0.07528011910211697,0.012025220260460436
0.02,0.011383194786925323,0.006384694715300338,0.007956304546839477,0.04100509098602905,0.09252976842737914,0.31202502689585754,0.013758718977889165,0.028668074295556244,0.014300495476973638,0.18478334993705225,0.09569972084919713,0.014359195616598196
0.021,0.011801220995385168,0.007580831310690325,0.009021462936941602,0.0417628628411411,0.09710728830204737,0.3208025857120728,0.014199443563494046,0.029436054848774686,0.014997145413989409,0.18924337727834664,0.11593112651727688,0.016670369607064785
0.022,0.012214799912593277,0.008756214418927828,0.01008422094268265,0.042504483065175305,0.10158704684565026,0.3293837829538424,0.014640707876604524,0.030204099091972622,0.0156870250551128,0.1936028431767006,0.13596832096890005,0.018957999270871852
0.023,0.012623759436226678,0.009910392763287939,0.011144308690079449,0.043229313290483254,0.10596661105532532,0.3377626703807347,0.01508250819737395,0.030972088754456558,0.016369932908415683,0.19785967455100056,0.15580553057599272,0.02122137264616461
0.024,0.01302793671710417,0.011042940275229613,0.012201463172062168,0.0439367350195742,0.11024366260319657,0.34593353515227604,0.015524849421075718,0.03173991931678718,0.01704568026934397,0.20201196994879242,0.175437222501056,0.023459808808258376
0.025,0.013427178291622745,0.012153456323847392,0.013255428217652236,0.04462615062559691,0.1144159995424887,0.35389090599540063,0.01596774511077085,0.032507500218795775,0.01771409133631591,0.20605800199484936,0.19485810339934623,0.025672657833104247
0.026,0.013821340190362946,0.013241565900844432,0.014305954438755496,0.04529698431621594,0.11848153778372943,0.3616295588443346,0.016411217524748202,0.03327475502731858,0.018375003294862722,0.20999621943511396,0.2140631175690753,0.027859300689209523
0.027,0.014210288023417771,0.014306919761762616,0.015352799155437297,0.045948683058644434,0.12243831234678837,0.3691445219492417,0.01685529761831173,0.0340416215633331,0.01902826637064091,0.21382524877594727,0.23304744457782367,0.03001914906117713
0.028,0.014593897042853469,0.015349194524236165,0.016395726300609707,0.04658071746357055,0.1262844783943998,0.37643108045199175,0.017300025019577683,0.03480805198839448,0.019673743851699513,0.2175438955199168,0.2518064963937625,0.03215164510813617
0.029,0.014972052182897275,0.01636809272400452,0.01743450630507648,0.04719258262599564,0.13001831205278458,0.3834847804297915,0.01774544797903528,0.03557401285025612,0.020311312080478018,0.22115114500064348,0.27033591405070573,0.03425626116044349
0.03,0.015344648078327847,0.0173633428294317,0.018468915963969972,0.04778379892112592,0.1336382110248317,0.39030143240980186,0.01819162329279192,0.03633948508762098,0.020940860415973938,0.22464616282033928,0.2886315638762178,0.03633249935814606
0.031,0.015711589061703883,0.018334699215277465,0.019498738285596905,0.048353912753720765,0.13714269500135878,0.39687711436000417,0.01863861619947783,0.03710446399403665,0.02156229116663488,0.22802829489464568,0.3066895333126751,0.0383798912347536
0.032,0.016072789139939408,0.019281942096442517,0.020523762323804165,0.048902497259559384,0.14053040587599824,0.40320817416329224,0.019086500250871805,0.03786895914087482,0.022175519494498776,0.2312970671101992,0.3245061263620677,0.04039799724995749
0.033,0.016428171950836207,0.020204877422433036,0.02154378299495481,0.04942915295796267,0.1438001077692401,0.40929123158322284,0.019535357156353992,0.03863299425931789,0.02278047329128342,0.23445218460091302,0.3420778586865239,0.04238640627500528
0.034,0.016777670700137727,0.021103336733309164,0.02255860088066194,0.049933508354567085,0.14695068686712648,0.41512317973183643,0.01998527660138792,0.03939660708121416,0.023377093027182147,0.237493530649199,0.3594014523976994,0.04434473503437654
0.035,0.017121228079639797,0.021977176977970542,0.023568022017476643,0.05041522049376515,0.1499811510800012,0.42070118605226275,0.02043635604031867,0.04015984913857434,0.023965331573189946,0.24042116521864382,0.3764738305691183,0.04627262750751178
0.036,0.017458796166897494,0.02282628029570732,0.02457185767476815,0.05087397546035428,0.1528906295269351,0.4260226928311585,0.020888700463814747,0.04092278552153404,0.024545153997842063,0.2432353231251014,0.3932921115060398,0.04816975429425146
0.037,0.017790336307107756,0.023650553762085334,0.025569924122077068,0.051309488830006585,0.15567837185179836,0.4310854172579153,0.02134242214142915,0.041685494594576385,0.025116537339199017,0.24593641185393958,0.4098536028074021,0.05003581194766392
0.038,0.018115818977759077,0.024449929100375068,0.026562042387233937,0.05172150606808624,0.15834374737750165,0.4358873510490015,0.02179764033973433,0.0424480676709412,0.02567947035288112,0.24852500903206565,0.42615579525415265,0.05187052227794233
0.039,0.01843522363681283,0.025224362359872462,0.0275480380065045,0.05210980287647892,0.16088624410538524,0.4404267596567424,0.022254481016618317,0.04321060864518263,0.026233953237069247,0.2510018595640417,0.4421963565579778,0.05367363163108973
0.04,0.01874853855519233,0.025973833562559837,0.028527740767938556,0.05247418548802342,0.16330546756704184,0.4447021810822174,0.02271307649236608,0.04397323358409456,0.026779997335405883,0.25336787244218234,0.45797312500410936,0.055444910146049374
0.041,0.019055760634496443,0.026698346319670788,0.029500984449083553,0.05281449090840657,0.16560113953596847,0.4487124243119274,0.023173565098209743,0.044736070276450574,0.027317624818892335,0.2556241172408468,0.4734841030214888,0.05718415099401282
0.042,0.01935689521080622,0.02739792741972482,0.030467606550153112,0.05313058710539255,0.1677730966063373,0.4524565673975117,0.023636090803075736,0.045499257742304,0.027846868347954936,0.2577718203054569,0.4887274507129645,0.058891169603528394
0.043,0.019651955845459,0.02807262638963209,0.031427448023790536,0.0534223731454905,0.16982128864589704,0.4559339551971831,0.024100802819328058,0.04626294570296868,0.028367770715876248,0.2598123606473702,0.5037014793774293,0.06056580287509221
0.044,0.019940964103673922,0.028722515030461047,0.032380353002540496,0.05368977927813562,0.1717457771297345,0.4591441967967226,0.02456785518831077,0.047027294013034536,0.028880384474875814,0.26174726555663563,0.5184046450550677,0.062207908388775206
0.045,0.020223949321799238,0.029347686929490493,0.03332616852519214,0.05393276696759359,0.17354673336134022,0.46208716262705474,0.025037406346512112,0.047792472056050986,0.029384771546101977,0.2635782059456901,0.532835542125922,0.06381736360843752
0.046,0.020500948364007596,0.02994825695019667,0.03426474426309526,0.05415132887266165,0.1752244365871255,0.4647629812944092,0.025509618673216838,0.04855865810563474,0.029881002814886704,0.2653069914382865,0.5469928969910542,0.06539406508588505
0.047,0.020772005369176953,0.03052436070180073,0.03519593224760502,0.05434548877425277,0.17677927201029592,0.4671720361380207,0.025984658020478796,0.04932603865394127,0.030369157712632697,0.2669355652187347,0.5608755618641936,0.06693792766825951
0.048,0.021037171488688947,0.031076153990019433,0.03611958659975493,0.054515301450872786,0.17821172870982985,0.4693149615292726,0.026462693226355565,0.050094807709450885,0.030849323786790808,0.26846599865715753,0.5744825087004284,0.0684488837117553
0.049,0.021296504615876552,0.031603812250615634,0.03703556326329633,0.05466085250208086,0.1795223974701414,0.4711926389250536,0.02694389561231594,0.050865166066182195,0.03132159626032969,0.2699004857265389,0.5878128232867937,0.06992688230469017
0.05,0.021550069107783572,0.032107529967264244,0.037943719742215595,0.05478225812015287,0.18071196852685711,0.4728061926872766,0.02742843846577766,0.05163732054647647,0.031786077582151816,0.271241337227171,0.6008656995180733,0.07137188850280754
0.051,0.02179793549995232,0.03258752007529942,0.038843914843776674,0.05487966481027703,0.18178122923410836,0.4741569856800272,0.027916496508688063,0.052411483219563744,0.03224287696985791,0.27249097483366186,0.6136404338794594,0.07278388257956799
0.052,0.022040180214894418,0.033044013352827854,0.03973600842814452,0.05495324905987306,0.18273106165873365,0.47524661465587204,0.02840824535309918,0.05318787059824112,0.03269210994615396,0.2736519249792111,0.6261364201560763,0.0741628592940992
0.053,0.0222768852649071,0.03347725780068723,0.040619861165583075,0.05500321695774165,0.18356244010678222,0.4760769054432491,0.028903860944609616,0.053966702816024364,0.033133897870272044,0.27472681259138043,0.6383531443876348,0.07550882717923141
0.054,0.022508137949951525,0.03388751801269239,0.041495334302177174,0.05502980376393394,0.18427642858778726,0.4766499079470685,0.029403518994584286,0.05474820278715897,0.0335683674656454,0.2757183546932639,0.6502901800845674,0.07682180785205016
0.055,0.022734030551272936,0.03427507453759822,0.042362289435016555,0.05503327343141585,0.184874178222405,0.47696789097437986,0.02990739440212827,0.055532595351832664,0.03399565034505078,0.27662935388379556,0.6619471837200638,0.0781018353491797
0.056,0.022954660021544563,0.034640223234119624,0.04322058829767176,0.05501391808068253,0.18535692459927672,0.4770333368964505,0.030415660666737464,0.05632010640889836,0.03441588253435659,0.2774626917108202,0.6733238905102596,0.07934895548892505
0.057,0.023170127672215105,0.03498327462033751,0.04407009255669009,0.05497205742859623,0.1857259850872372,0.4768489361578879,0.03092848929266976,0.05711096203838803,0.034829203995964717,0.2782213219502521,0.6844201104926936,0.08056322526230046
0.058,0.0233805388588167,0.03530455321869645,0.04491066361979718,0.05490803817282054,0.18598275610933274,0.4764175816426858,0.0314460491860941,0.057905387616057076,0.03523575815287253,0.27890826380441275,0.6952357249108462,0.08174471225464701
0.059,0.023586002664857376,0.03560439689783413,0.04574216245631261,0.05482223333328975,0.18612871038545423,0.4757423629061771,0.03196850604616907,0.058703606922172316,0.035635691414298745,0.2795265950321403,0.7057706829100713,0.08289349409943203
0.06,0.023786631584941154,0.03588315621234826,0.046564449430307235,0.05471504155223669,0.18616539415053882,0.47482656028086545,0.03249602175134532,0.059505841246800514,0.03602915270365498,0.28007944502310916,0.7160249985478581,0.08400965796549957
0.061,0.023982541207662897,0.036141193741679456,0.04737738414681244,0.054586886354300576,0.18609442435530307,0.4736736388632868,0.03302875374229761,0.06031230849370453,0.03641629298962381,0.2805699878286516,0.7259987481187211,0.08509330007877487
0.062,0.024173849898888294,0.03637888342915199,0.04818082531144512,0.0544382153682824,0.1859174858562591,0.4722872423884438,0.03356685440300417,0.06112322228499632,0.036797264821140624,0.281001435161464,0.735692067791498,0.08614452527922475
0.063,0.02436067848591206,0.036596609922243416,0.0489746306036392,0.05426949951210028,0.18563632860144713,0.4706711869984819,0.03411047044165461,0.0619387910684015,0.03717222186703039,0.28137702937686904,0.7451051515542465,0.08716344661351827
0.064,0.024543149942993163,0.0367947679151073,0.049758656563664586,0.05408123214266258,0.18525276481788,0.4688294549128443,0.03465974227312366,0.06275921722897462,0.037541318461181354,0.28170003644862407,0.7542382494594813,0.08815018496367645
0.065,0.024721389078708092,0.03697376149425075,0.05053275849351082,0.053873928172434624,0.18476866620623167,0.46676618800825537,0.03521480340487294,0.06358469620685986,0.037904709154157064,0.2819737389527617,0.7630916661600745,0.08910486871170399
0.066,0.024895522225516987,0.03713400348827741,0.051296790371637035,0.05364812315468624,0.18418596114787,0.46448568131793677,0.03577577982813742,0.06441541562278034,0.03826254827224231,0.28220142907364026,0.7716657597239307,0.09002763343999429
0.067,0.02506567693188737,0.03727591482243177,0.05205060478151538,0.05340437233955631,0.1835066319290112,0.46199237646025393,0.036342789416330214,0.06525155441285271,0.0386149894849265,0.28238640164715695,0.7799609407135802,0.09091862166710166
0.068,0.02523198165735681,0.03739992387865345,0.05279405285383081,0.05314324970327985,0.18273271198652133,0.45929085500721323,0.03691594133252789,0.06609328197450635,0.03896218538182195,0.28253194725672154,0.7879776715152569,0.09177798261822626
0.069,0.025394565470875322,0.03750646586171352,0.053526984222087265,0.05286534695306783,0.18186628317964787,0.45638583180309583,0.03749533544785643,0.06694075732522148,0.039304287059987876,0.2826413453979169,0.7957164659008445,0.09260587202965807
0.07,0.02555355775283023,0.03759598217195468,0.05424924699141385,0.052571272510189705,0.1809094730916707,0.4532821482429647,0.03808106177250725,0.06779412827590404,0.0396414437224958,0.2827178577275553,0.8031778888050811,0.09340245198612127
0.071,0.025709087901149917,0.03766891978519194,0.05496068772029182,0.05226165047375651,0.1798644523652286,0.44998476552034655,0.03867319990101641,0.0686535306205826,0.03997380228901263,0.2827647214125315,0.8103625562995614,0.0941678907898784
0.072,0.0258612850418681,0.03772573064026303,0.055661151414977295,0.051937119567665745,0.17873343207472966,0.4464987578528657,0.039271818473403615,0.06951908734411244,0.04030150701905997,0.28278514259323956,0.8172711357441546,0.09490236286017163
0.073,0.02601027774451817,0.0377668710348158,0.05635048153636121,0.051598332073127126,0.1775186611390608,0.4428293056947274,0.03987697465376758,0.07039090784936775,0.04062469914855061,0.2827822899757729,0.8239043460958664,0.09560604866145772
0.074,0.02615619374268708,0.03779280102988744,0.05702852001898572,0.05124595274911869,0.17622242377759334,0.4389816889451442,0.04048871362786494,0.07126908720540891,0.04094351654015295,0.2827592885664965,0.8302629583545802,0.09627913465870809
0.075,0.02629915965997324,0.03780398386384542,0.05769510730182198,0.050880657743149815,0.17484703701210227,0.4349612801622527,0.04110706812127525,0.07215370541797278,0.041258093347937924,0.28271921356206986,0.836347796124409,0.09692181329791856
0.076,0.026439300741635526,0.03780088537623533,0.05835008237039147,0.05050313349467317,0.17339484821691387,0.4307735377921864,0.041732057939652,0.07304482672348787,0.04156855969666275,0.2826650844075724,0.8421597362681638,0.09753428300990735
0.077,0.026576740592175924,0.03778397344210744,0.05899328280962625,0.05011407563336594,0.1718682327191304,0.426423999422765,0.04236368953259108,0.07394249890773347,0.04187504137594574,0.2825998590349984,0.8476997096306588,0.09811674823534587
0.078,0.026711600919142854,0.03775371741730178,0.05962454486683806,0.049714187874476096,0.17026959145047482,0.4219182750708563,0.04300195558248584,0.07484675265004163,0.042177659549451574,0.28252642829405217,0.8529687018046387,0.09866941946888699
0.079,0.02684400128349026,0.03771058759529041,0.06024370352413229,0.04930418091328847,0.1686013486519072,0.41726204051189575,0.043646834619741906,0.07575760089385561,0.04247653047915059,0.2824476105867986,0.8579677539113151,0.09919251332011776
0.08,0.026974058856785183,0.03765505467601618,0.060850592579586464,0.048884771320734814,0.16686594963185203,0.41246103065958795,0.04429829066567879,0.07667503824432934,0.042771765264702145,0.2823661467173913,0.8626979633668238,0.09968625258910092
0.081,0.027101888185604762,0.03758758924734033,0.06144504473668526,0.04845668044202177,0.16506585857854952,0.4075210330033724,0.04495627290430646,0.07759904039360631,0.04306346959806999,0.2822846949676698,0.867160484606724,0.10015086635420946
0.082,0.027227600963476907,0.03750866127954968,0.06202689170151872,0.04802063330008897,0.16320355642669782,0.4024478811106701,0.0456207153842519,0.07852956357442249,0.04335174353352546,0.28220582640883746,0.8713565297435623,0.10058659007015486
0.083,0.02735130581066332,0.0374187396334625,0.06259596428746451,0.04757735750567878,0.16128153877820134,0.3972474482001661,0.04629153675199696,0.07946654404261705,0.043636681273350776,0.28213202045882707,0.8752873691368164,0.10099366567420819
0.084,0.027473108062090943,0.03731829158255886,0.06315209252725608,0.04712758217567582,0.1593023138764113,0.3919256407914352,0.046968640017509805,0.08040989758927304,0.04391837096942308,0.2820656606942961,0.8789543318592539,0.10137234169873623
0.085,0.02759310956368997,0.03720778234953596,0.06369510579249625,0.0466720368614381,0.15726840063287933,0.3864883924349348,0.04765191235334855,0.08135951908318326,0.04419689454093778,0.28200903092536805,0.8823588060477462,0.10172287338828465
0.086,0.02771140847746392,0.03708767465761387,0.06422483292093809,0.046211450488689285,0.15518232670537901,0.3809416575252517,0.04834122492811519,0.0823152820444349,0.044472327508390114,0.28196431154053814,0.8855022391294632,0.10204552281955764
0.087,0.0278280990955305,0.036958428296969305,0.06474110235195066,0.045746550310582196,0.15304662662594634,0.37529140519924303,0.04903643277508229,0.08327703824987547,0.04474473884395973,0.28193357612809783,0.8883861379163148,0.1023405590228421
0.088,0.027943271663437633,0.03682049970658227,0.06524374227064578,0.04527806087542424,0.15086383997778094,0.3695436133199065,0.04973737469669531,0.08424461737121498,0.04501419083844833,0.28191878837965617,0.8910120685622056,0.1026082581034645
0.089,0.02805701221297034,0.036674341571809724,0.06573258076121039,0.04480670301046863,0.14863650962008607,0.3637042625461934,0.05044387320551683,0.08521782664645018,0.04528073898489177,0.2819217992802304,0.8933816563794835,0.10284890336190543
0.09,0.02816940240461016,0.03652040243799223,0.06620744596973563,0.04433319282318317,0.14636717996016685,0.3577793304887836,0.051155734502159544,0.08619645058532699,0.04554443187898914,0.2819443445884645,0.8954965855132679,0.10306278541107333
0.091,0.02828051937982832,0.03635912634031532,0.06666816627690844,0.04385824072129274,0.1440583952722045,0.3517747859518753,0.05187274849063765,0.08718025070948275,0.04580531113640457,0.2819880426095525,0.8973585984756399,0.10325020228926633
0.092,0.02839043562332799,0.03619095245013721,0.06711457048060415,0.04338255045287997,0.14171269806209785,0.34569658326128144,0.05259468883147931,0.08816896532780727,0.046063411327005484,0.28205439226252765,0.8989694955458556,0.10341145956751803
0.093,0.028499218835522783,0.03601631473791013,0.06754648798853048,0.04290681816775175,0.13933262747764483,0.3395506566794763,0.05332131303281975,0.08916230934753713,0.046318759926014086,0.28214477144263844,0.9003311340471611,0.10354687045029885
0.094,0.028606931815503677,0.03583564165282227,0.0679637490208648,0.042431731501148096,0.13692071776325032,0.3333429149086127,0.05405236257949825,0.0901599741214953,0.046571377282099036,0.28226043567879994,0.901445427514284,0.10365675586875858
0.095,0.02871363235484488,0.035649355819277924,0.06836618482300653,0.04195796868086221,0.13447949675835022,0.32707923568294994,0.05478756310008749,0.0911616273319631,0.046821276602397724,0.2824025170852922,0.9023143447675543,0.1037414445661304
0.096,0.02881937314260498,0.03545787375031009,0.06875362788863666,0.04148619765872134,0.13201148443878122,0.3207654604524441,0.05552662457164376,0.09216691291168372,0.047068463954473,0.28257202360625633,0.902939908909818,0.10380127317508459
0.097,0.028924201681908502,0.03526160557807775,0.06912591219341417,0.04101707526743737,0.1295191915004374,0.31440738915935257,0.056269241561892634,0.09317545100264213,0.04731293828521972,0.28276983855098287,0.9033241962614845,0.10383658628706867
0.098,0.029028160218514315,0.03506095480149981,0.06948287343984268,0.04055124640378466,0.1270051179847132,0.30801077510953695,0.05701509350845372,0.09418683795349989,0.047554691456601766,0.28299672041742413,0.9034693352474945,0.10384773651368197
0.099,0.02913128568170397,0.03485631805113549,0.06982434931376558,0.0400893432390754,0.12447175194551678,0.30158131993969084,0.05776384503472281,0.09520064635673213,0.04779370829821942,0.28325330300096124,0.9033775052482153,0.10383508454007698
0.1,0.029233609637873276,0.034648084871313004,0.07015017975296553,0.039631984457805206,0.12192156815796393,0.2951246686816289,0.05851514630194568,0.09621642512686356,0.04802996667648584,0.283540095785125,0.9030509354247311,0.10379899917042983
0.101,0.0293351582570833,0.03443663751948167,0.07046020722822069,0.0391797745253355,0.11935702686922778,0.28864640492476756,0.05926863339691522,0.09723369962128571,0.04826343758025639,0.2838574846107999,0.9024919035283365,0.10373985736542986
0.102,0.029435952292861507,0.03422235078264858,0.07075427703700825,0.03873330298529249,0.116780572592265,0.2821520460782085,0.06002392875470253,0.09825197180530294,0.04849408522261048,0.2842057326202694,0.9017027347044909,0.10365804427179023
0.103,0.029536007075441878,0.0340055918107151,0.07103223761001332,0.03829314378724133,0.1141946329432983,0.27564703873401214,0.06078064161559023,0.09927072046288732,0.048721867158443205,0.28458498147250477,0.9006858003026355,0.10355395324364844
0.104,0.029635332518607598,0.0337867199664165,0.07129394083037764,0.03785985464512263,0.11160161752401651,0.2691367541339297,0.06153836851534872,0.10028940145460488,0.0489467344174988,0.28499525282596955,0.8994435167040752,0.10342798585573378
0.105,0.02973393314026547,0.03356608669147004,0.07153924236557456,0.03743397642673455,0.1090039168493009,0.26262648374296094,0.062296693807840656,0.10130744802387985,0.04916863165241838,0.28543645008532387,0.8979783441799103,0.10328055190801828
0.106,0.029831808096813586,0.03334403538857505,0.07176800201158261,0.03701603257452417,0.1064039013212194,0.2561214349345744,0.0630551902188212,0.10232427115263712,0.04938749730125897,0.28590836040820256,0.8962927857897405,0.10311206942151262
0.107,0.029928951231329277,0.03312090131868735,0.0719800840489306,0.03660652855788854,0.10380392024990302,0.2496267267937323,0.06381341942978795,0.10333925996706622,0.04960326376398101,0.28641065696794515,0.8943893863297558,0.10292296462478857
0.108,0.030025351135536848,0.032897011513092336,0.07217535761003403,0.036205951357079755,0.10120630092180506,0.24314738604459257,0.06457093269056359,0.10435178219409622,0.0498158575922419,0.2869429014675597,0.8922707313362221,0.10271367193056774
0.109,0.030120991225481987,0.03267268469958328,0.07235369705721076,0.035814768978794924,0.09861334771574203,0.23668834311003908,0.06532727145932041,0.1053611846689203,0.05002519969193334,0.28750454689969307,0.8899394461477225,0.10248463390179502
0.11,0.03021584983075482,0.032448231242176814,0.07251498237067083,0.03543343000346067,0.09602734126696448,0.23025442831007842,0.06608196806862592,0.10636679389378995,0.05023120553788444,0.2880949405467498,0.8873981950266548,0.10223630120649928
0.111,0.030309900297132694,0.03222395309359908,0.0726590995457815,0.0350623631641775,0.09345053767950831,0.22385036820580226,0.06683454641603767,0.10736791664824195,0.05043378540015493,0.28871332721488796,0.8846496803380243,0.10196913256094271
0.112,0.030403111102411486,0.03200014375988572,0.07278594099879648,0.03470197695730091,0.09088516778686302,0.21748078209527597,0.067584522677709,0.10836384065078575,0.050632844581350395,0.2893588526950905,0.8816966417818409,0.10168359466077576
0.113,0.030495445985221355,0.03177708827636211,0.07289540598017533,0.03435265928465354,0.08833343646094913,0.21115017866738625,0.06833140604334306,0.10935383527203704,0.050828283664358376,0.29003056744431643,0.8785418556750809,0.10138016210009529
0.114,0.03058686408652835,0.03155506319432763,0.07298740099442572,0.03401477712730659,0.08579752196919317,0.20486295281934133,0.06907469947072008,0.11033715229912484,0.05101999876994142,0.290727430479272,0.8751881342800752,0.10105931727841995
0.115,0.0306773201034888,0.0313343365778337,0.07306184022528041,0.03368867625093834,0.08327957537924943,0.1986233826431001,0.06981390045791569,0.11131302675097489,0.05120788182361665,0.29144831347503924,0.8716383251778738,0.10072155029563021
0.116,0.030766764455307797,0.031115168009944807,0.07311864596476286,0.03337468094268114,0.08078172001068071,0.19243562658553273,0.07054850183121356,0.11228067774387464,0.05139182083125784,0.29219200506012355,0.8678953106866137,0.10036735883494505
0.117,0.030855143460639597,0.030897808607858804,0.07315774904464838,0.03307309377940672,0.07830605093262222,0.18630372078662275,0.0712779925466745,0.11323930940649508,0.05157170016290565,0.2929572152988775,0.8639620073256329,0.09999724803412542
0.118,0.03094239952611013,0.030682501046241074,0.07317908926863027,0.032784195427398,0.07585463450622419,0.18023157659940134,0.07200185850332845,0.11418811184346091,0.0517474008442988,0.2937425803513699,0.8598413653258086,0.09961173034503187
0.119,0.031028471345516638,0.030469479588114065,0.07318261584352888,0.03250824447332246,0.0734295079704429,0.17422297829472702,0.07271958336595356,0.11512626214641129,0.05191880085577367,0.2945466672998136,0.8555363681859701,0.09921132538160943
0.12,0.031113294109167248,0.030258970122614536,0.07316828780790824,0.03224547728646483,0.07103267906961595,0.1682815809533231,0.0734306493954914,0.11605292545146145,0.05208577543822052,0.29536797912969226,0.851050032274635,0.09879655975623419
0.121,0.03119679972290196,0.030051190208990757,0.07313607445639998,0.03199610791216898,0.06866612572109236,0.16241090854689938,0.07413453828514179,0.1169672560419401,0.05224819740587655,0.2962049598526667,0.8463854064758027,0.09836796690416963
0.122,0.031278917036184725,0.029846349126271442,0.0730859557580858,0.03176032799644855,0.06633179572107066,0.1566143522094975,0.07483073200021297,0.11786839849523009,0.05240593746578644,0.2970559997573199,0.8415455718772251,0.0979260868959414
0.123,0.03135957207867513,0.029644647927984442,0.07301792276721873,0.03153830674172786,0.06403160648669967,0.15089516869968458,0.07551871361987278,0.11875548887266835,0.05255886454384376,0.29791944077273386,0.8365336414993121,0.09747146623724613
0.124,0.031438688304644434,0.029446279501443625,0.07293197802445932,0.03133019089366107,0.06176744483233523,0.145256479053562,0.07619796817900956,0.11962765595145144,0.05270684611732838,0.2987935819289298,0.8313527600625847,0.09700465765607773
0.125,0.03151618684458853,0.029251428631049358,0.07282813594688191,0.031136104758906283,0.05954116677778793,0.13970126742816005,0.07686798350864854,0.12048402249752259,0.05284974855394761,0.299676684897172,0.8260061037912251,0.09652621987675974
0.126,0.03159198676338137,0.02906027206517887,0.072706423204827,0.030956150253640895,0.05735459738627597,0.13423238013438607,0.07752825107345257,0.12132370657834005,0.05298743745728686,0.30056697959225565,0.8204968802500038,0.09603671738074467
0.127,0.03166600532435434,0.02887297858626395,0.07256687908384526,0.030790406982552383,0.055209530629725834,0.12885252485839851,0.07817826680513791,0.1221458229142406,0.05311977801850774,0.3014626698181829,0.8148283282115614,0.09553672015431536
0.128,0.0317381582586353,0.028689709083697838,0.07240955582999596,0.03063893234786349,0.05310772927907492,0.12356427007003405,0.07881753193064969,0.12294948426695172,0.05324663537401473,0.302361938938052,0.8090037175509275,0.09502680342358691
0.129,0.03180836003910013,0.028510616629238022,0.07223451897702649,0.03050176168794693,0.05105092481713233,0.11837004461662957,0.07944555379405507,0.12373380286356336,0.0533678749685989,0.3032629555488173,0.8030263491641373,0.09450754737756424
0.13,0.031876524158237635,0.02833584655460077,0.07204184765402913,0.030378908444896043,0.049040817371603714,0.11327213750020704,0.0800618466712085,0.12449789185412603,0.05348336292350056,0.30416387914155546,0.7968995549080518,0.09397953688011994
0.131,0.03194256340921163,0.028165536530858265,0.07183163487234814,0.030270364360419574,0.04707907566576325,0.10827269783564492,0.08066593257628002,0.12524086680084318,0.053592966408535433,0.30506286572797403,0.7906266975588447,0.09344336117189185
0.132,0.03200639016929363,0.027999816649287888,0.0716039877904622,0.030176099699323118,0.0451673369843074,0.10337373498705116,0.08125734205939565,0.12596184719658932,0.05369655401741788,0.305958073414156,0.7842111707866345,0.0928996135632254
0.133,0.03206791668489216,0.027838809503232576,0.07135902795562903,0.03009606349987611,0.04330720715181376,0.09857711887917926,0.08183561499470782,0.12665995801026356,0.053793996145219944,0.30684766790255175,0.7776563991431356,0.09234889111923304
0.134,0.03212705535737559,0.027682630270619863,0.07109689152109984,0.030030183850295898,0.04150026052128579,0.09388458048046705,0.08240030135817969,0.12733433125631147,0.05388516536688767,0.30772982790302356,0.7709658380579469,0.0917917943380516
0.135,0.032183719028921864,0.027531386796787138,0.07081772943769647,0.029978368190678794,0.039748039970310595,0.08929771245406595,0.08295096199421848,0.12798410758555462,0.05396993681576907,0.30860275043347835,0.7641429738372582,0.09122892682328507
0.136,0.03223782126766339,0.02738517967725101,0.0705217076185257,0.029940503639663482,0.03805205690243411,0.08481796997296269,0.08348716937008306,0.12860843789431883,0.05404818856106735,0.3094646559903721,0.7571913236565212,0.0906608949514154
0.137,0.032289276651447214,0.0272441023402129,0.07020900707555841,0.0299164573451971,0.03641379125136913,0.08044667169521061,0.08400850831681253,0.1292064849485798,0.05411980198324692,0.31031379356964167,0.750114435536502,0.09008830753488539
0.138,0.032338001049413076,0.027108241128577303,0.06987982402666722,0.029906076858726004,0.03483469148582547,0.076185000895005,0.08451457675520929,0.12977742501962622,0.05418466214631176,0.31114844551898485,0.742915888289933,0.08951177548138788
0.139,0.03238391190062882,0.02697767538139425,0.06953436997166289,0.02990919053218729,0.03331617461270121,0.07203400674516668,0.08500498640527913,0.13032044952741648,0.054242658165935466,0.3119669322026632,0.7355992914246554,0.08893191144979017
0.14,0.03242692848891046,0.02685247751468356,0.06917287173564066,0.029925607937063406,0.031859626176506825,0.0679946057464042,0.08547936347740379,0.1308347666875698,0.05429368357221016,0.312767616459883,0.7281682849880996,0.08834932950298292
0.141,0.032466972212869975,0.02673271310165818,0.06879557147797019,0.029955120304873985,0.03046640025290957,0.06406758329845154,0.08593734934338042,0.13131960315762925,0.05433763666586098,0.31354890783784994,0.7206265393378717,0.08776464475782095
0.142,0.032503966850208454,0.026618440952416007,0.06840272666521563,0.02999750098831712,0.029137819434329682,0.06025359540810615,0.08637860118532072,0.13177420567798992,0.05437442086657781,0.3143092665810609,0.7129777548235964,0.08717847303217688
0.143,0.032537838815141454,0.026509713193192577,0.06799461000638872,0.03005250594236302,0.02787517480563169,0.05655317052899301,0.08680279262023956,0.13219784270260088,0.054403945052143125,0.3150472073597552,0.7052256613672079,0.08659143048910437
0.144,0.032568517407874385,0.026406575345361498,0.06757150934920059,0.030119874224560417,0.026679725908148565,0.052966711527771604,0.08720961429812199,0.13258980601434237,0.05442612388697314,0.31576130272200764,0.6973740179326192,0.0860041332781141
0.145,0.0325959350550876,0.026309066404326998,0.0671337275361219,0.030199328513864334,0.02555270069046538,0.04949449777146273,0.08759877447112288,0.1329494123197461,0.05444087813875119,0.3164501862557725,0.6894266118811917,0.08541719717360735
0.146,0.03262002754044163,0.026217218918518543,0.06668158221942522,0.030290575647370914,0.024495295444556475,0.046136687330364044,0.0879699995316018,0.13327600481740373,0.05444813498175309,0.3171125554494401,0.6813872582150614,0.08483123721073643
0.147,0.03264073422435891,0.026131059068668614,0.06621540563467226,0.030393307174317902,0.023508674726032,0.042893319290957486,0.0883230345166355,0.13356895473420324,0.05444782828558959,0.31774717424280896,0.673259798714779,0.08424686731892718
0.148,0.032657998252415804,0.026050606747633525,0.06573554433234359,0.03050719992675187,0.022593971257295963,0.03976431617311391,0.08865764357675313,0.1338276628231841,0.05443989888798311,0.31835287526463973,0.6650481009799356,0.0836646999534889
0.149,0.03267176675188065,0.025975875640978863,0.06524235886762422,0.030631916606230512,0.021752285812568113,0.036749486445797834,0.08897361040689473,0.13405156081655162,0.054424294850228754,0.31892856175726736,0.6567560573816352,0.08308534572563751
0.15,0.032681991016039746,0.02590687330858948,0.06473622344853802,0.030767106385893583,0.02098468708374307,0.03384852713558894,0.08927073863791984,0.1342401128271311,0.05440097169402221,0.3194732091928083,0.648387583934777,0.0825094130314171
0.151,0.032688626676060754,0.02584360126751016,0.06421752554299079,0.0309124055272227,0.020292211526133447,0.031061026522358336,0.08954885218739658,0.1343928166914289,0.05436989261823707,0.3199858665889408,0.6399466190969747,0.08193750767990864
0.152,0.03269163386023192,0.0257860550762538,0.06368666544558933,0.031067438010833247,0.01967586318311669,0.02838646691659911,0.08980779556867202,0.1345092052475439,0.05433102869436327,0.3204656575350612,0.6314371224997205,0.08137023252114813
0.153,0.032690977340488356,0.025734224420754345,0.06314405580566101,0.031231816180518367,0.019136613488759207,0.025824227512995467,0.09004743415769982,0.1345888475412699,0.054284359039277634,0.32091178094124506,0.6228630736166655,0.08080818707402938
0.154,0.032686626666200466,0.025688093202153116,0.06259012111832332,0.03140514139974974,0.018675401047605154,0.023373587314888197,0.09026765441744798,0.1346313499542976,0.054229870964177494,0.3213235115232834,0.6142284703734605,0.08025196715443375
0.155,0.03267855628520711,0.025647639626592,0.06202529718089275,0.031587004719824195,0.018293131390872904,0.02103372812428038,0.09046836408025077,0.13463635724909404,0.054167560098541324,0.321700200037407,0.6055373277034576,0.07970216450368763
0.156,0.0326667456520589,0.025612836297140475,0.061450030517322035,0.0317769875587338,0.0179906767084661,0.018803737592081392,0.09064949228880581,0.13460355352617703,0.05409743048811462,0.32204127327890414,0.5967936760530599,0.079159366417401
0.157,0.03265117932345419,0.02558365030801642,0.060864777773513706,0.03197466238994661,0.01776887555631196,0.016682612323250648,0.09081098969687736,0.13453266309047135,0.05401949466589857,0.32234623385951316,0.5880015598399441,0.07862415537466434
0.158,0.03263184704081788,0.025560043341195028,0.06027000508650515,0.03217959344022562,0.01762853253865334,0.014669261031448477,0.0909528285307846,0.13442345122438254,0.05393377369522282,0.3226146597788116,0.5791650358664875,0.07809710866754599
0.159,0.03260874379990338,0.0255419717655291,0.05966618743054667,0.03239133739570028,0.01757041796505361,0.012762507737865244,0.09107500261275699,0.13427572486587713,0.053840297184101125,0.3228462038046237,0.5702881716898912,0.07757879803083398
0.16,0.03258186990728892,0.02552938673847697,0.059053807942982546,0.032609444115500964,0.017595267481981695,0.010961095008813045,0.09117752734708127,0.1340893331903203,0.053739103270348,0.32304059267685875,0.5613750439494397,0.07706978927199558
0.161,0.03255123102368136,0.025522234310453584,0.058433357232847295,0.032833457352261196,0.017703781679000198,0.009263687226743336,0.0912604396698875,0.13386416809501273,0.05363023857732151,0.3231976261485654,0.5524297366499984,0.07657064190137376
0.162,0.032516838193910214,0.02552045553187197,0.057805332674932784,0.0330629154788502,0.01789662566980516,0.00766887388935186,0.09132379796334825,0.1336001645854436,0.0535137581406852,0.32331717587769165,0.5434563393996744,0.07608190876271675
0.163,0.03247870786365404,0.025523986562861773,0.057170237692032395,0.0332973522207117,0.018174428648606585,0.006175172931488177,0.09136768193504027,0.133297301062444,0.0533897253070133,0.323399184183187,0.5344589455985909,0.07560413566408705
0.164,0.03243686188287241,0.02553275878563588,0.05652858102786757,0.03353629739306373,0.01853778342248336,0.004781034064741093,0.09139219246304628,0.13295559951001232,0.053258211605554676,0.3234436626792867,0.5254416505754764,0.07513786100931734
0.165,0.032391327496041636,0.025546698919499376,0.05588087601320635,0.03377927764223908,0.018987245920536883,0.0034848421295308775,0.09139745140727457,0.13257512558417903,0.053119296594513275,0.3234506908019212,0.516408549668624,0.07468361543015793
0.166,0.03234213731923456,0.025565729138448835,0.05522763982756585,0.034025817190288285,0.019523334680787038,0.0022849204547510204,0.09138360138726596,0.13215598860417455,0.052973067683408925,0.32342041424112994,0.5073637362478508,0.07424192141938313
0.167,0.03228932930410629,0.025589767191329223,0.0545693927588809,0.03427543858194757,0.020146530315916022,0.001179534219962594,0.09135080552664243,0.13169834144775283,0.052819619933070695,0.3233530432931213,0.4983112996737897,0.07381329296513607
0.168,0.03223294668881646,0.025618726524486754,0.053906657463452044,0.03452766343292217,0.020857274959004017,0.0001668938152970096,0.091299247164195,0.1312023803529333,0.05265905583491532,0.3232488511451944,0.4892553231904675,0.07339823518696449
0.169,0.032173037935996025,0.02565251640694274,0.05323995822840486,0.03478201317846629,0.021655971690512334,0.0007548418057205968,0.09122912953158457,0.13066834462881552,0.05249148507119187,0.32310817210598625,0.48019988174664097,0.0729972439741386
0.17,0.032109656657926026,0.02569104205803646,0.05256982023878295,0.03503800982108097,0.02254298394776404,0.001587561785128987,0.09114067539765118,0.1300965162781529,0.05231702425783568,0.32293139979269103,0.4711490397410412,0.07261080562701204
0.171,0.03204286152916723,0.025734204777614053,0.05189676885124496,0.035295176676183995,0.023518634918385614,0.002333200035800917,0.09103412667955181,0.1294872195345089,0.052135796671633754,0.3227189852859906,0.46210684868625374,0.07223939650235572
0.172,0.031972716186958364,0.02578190207874424,0.05122132887622964,0.03555303911452114,0.024583206919327538,0.0029937319374180936,0.09090974402114818,0.12884082031685556,0.05194793196333506,0.3224714352626574,0.4530773447856357,0.07188348266370126
0.173,0.031899289119756584,0.025834027823026212,0.050544023870297515,0.03581112530007857,0.025736940763343392,0.0035711710572706714,0.09076780633941679,0.12815772560436117,0.051753565858473564,0.3221893101148655,0.444064546417677,0.07154351953789319
0.174,0.031822653544307314,0.025890472358522616,0.04986537544025503,0.03606896692225028,0.026980035115080635,0.004067565899852561,0.09060861033982717,0.12743838273423386,0.051552839847560206,0.32187322206425295,0.43507245152340895,0.0712199515791158
0.175,0.031742887271647806,0.025951122660304016,0.04918590256052326,0.0363260999209085,0.02831264583906145,0.004484996688887122,0.09043247000181452,0.1266832786253127,0.0513459008674159,0.3215238332777906,0.4261050348948416,0.0709132119415248
0.176,0.03166007256244511,0.026015862473641464,0.04850612090502595,0.036582065203079245,0.029734885341970625,0.004825572185318863,0.0902397160354353,0.12589293893033449,0.05113290097529765,0.3211418539914094,0.4171662453656901,0.07062372216160104
0.177,0.031574295972092103,0.0260845724597894,0.047826542194792765,0.03683640934986113,0.031246821911690544,0.005091426544601193,0.09003069531028395,0.12506792711995474,0.050913997017507095,0.3207280406462602,0.4082600029089934,0.07035189185123317
0.178,0.031485648185985274,0.026157130344387842,0.04714767356226612,0.03708868531220294,0.032848479055625615,0.005284716216446419,0.08980577025778023,0.12420884350201407,0.050689350294112485,0.3202831940414122,0.3993901956489193,0.07009811840253515
0.179,0.031394223845400276,0.02623341106844516,0.04647001693322779,0.03733845309412815,0.03453983484081573,0.005407616890163715,0.08956531824801363,0.1233163241800152,0.05045912622130188,0.31980815750570596,0.390560676796124,0.06986278670537631
0.18,0.031300121364458235,0.026313286941870864,0.04579406842716045,0.03758528042206792,0.036320821238500625,0.0054623204885028065,0.08930973094239626,0.12239103995536411,0.050223493992877365,0.31930381509046185,0.38177526151772373,0.06964626887850849
0.181,0.031203442738571927,0.026396627799513912,0.04512031777679685,0.03782874339888704,0.03819132347573098,0.005451032212886438,0.08903941362344213,0.12143369517845323,0.04998262624228655,0.31877108978378976,0.3730377237545127,0.06944892401504871
0.182,0.031104293344820455,0.026483301159558346,0.044449247767540404,0.038068427141326015,0.04015117939675545,0.005375967642747147,0.0887547845029974,0.1204450265540334,0.04973669870656853,0.31821094174630127,0.3643517929993752,0.06927109794292224
0.183,0.031002781734718602,0.026573172384181856,0.04378133369742755,0.0383039263995129,0.04220017883690103,0.005239349891587566,0.08845627401029675,0.11942580190639249,0.0494858898935275,0.3176243665670797,0.3557211510518268,0.06911312300073029
0.184,0.0308990194198083,0.02666610484232899,0.043117042858168905,0.0385348461572201,0.04433806301164676,0.0050434068222293986,0.08814432406145428,0.1183768189097733,0.0492303807533534,0.3170123935379129,0.3471494287639213,0.06897531782940035
0.185,0.03079312065055381,0.026761960074471874,0.04245683403777418,0.03876080221152555,0.04656452392361032,0.0047903683236218695,0.08781938731215072,0.11729890378914992,0.048970354355841066,0.3163760839430507,0.3386402027925061,0.0688579871798562
0.186,0.030685202189056602,0.026860597959298765,0.04180115704514949,0.038981421730431974,0.04887920379014359,0.004482463651420559,0.08748192639559539,0.11619290999628147,0.048705995574196075,0.31571652936116923,0.33019699237231714,0.06876142173698874
0.187,0.0305753830761236,0.02696187688227268,0.041150452257085315,0.03919634378702869,0.051281694494239444,0.004121918834422385,0.08713241314790227,0.11505971686560724,0.04843749077632443,0.31503484997576453,0.3218232561235858,0.0686858979601087
0.188,0.030463784393345336,0.02706565390596759,0.0405051501878776,0.03940521986873031,0.05377153706146106,0.0037109541488519688,0.08677132782300463,0.11390022825426294,0.04816502752439806,0.3143321928897537,0.3135223889072126,0.0686316779401103
0.189,0.03035052902085434,0.027171784942118683,0.03986567108191707,0.039607714360196174,0.05634822116554622,0.0032517816623289725,0.08639915829921514,0.11271537117017368,0.04788879428336216,0.31360973043948426,0.30529771873981415,0.06859900927352902
0.19,0.030235741391497525,0.02728012492517674,0.03923242452937985,0.03980350499858609,0.0590111846652033,0.002746602849143813,0.08601639927954988,0.1115060943918231,0.04760898013902,0.3128686585027099,0.2971525037801832,0.06858812495362418
0.191,0.030119547242152444,0.02739052798719914,0.03860580910514621,0.03999228329980625,0.061759813174525884,0.0021976062783015705,0.08562355148801568,0.11027336708288248,0.04732577452626927,0.3121101947943657,0.28908992939782624,0.06859924327848665
0.192,0.03000207336292888,0.027502847633767286,0.0379862120309554,0.040173754954487724,0.06459343966925399,0.0016069653755035973,0.0852211208641718,0.10901817740457471,0.047039366967969266,0.3113355771432494,0.28111310533330913,0.06863256777615402
0.193,0.029883447345037794,0.02761693692063402,0.03737400886068856,0.04034764019248613,0.06751134413110098,0.0009768362601599455,0.08480961775837734,0.10774153112821389,0.046749946824934066,0.3105460617423285,0.27322506295902077,0.06868828714649272
0.194,0.029763797328047726,0.027732648630744604,0.036769563188671965,0.04051367411489519,0.07051275323222357,0.0003093556582754719,0.08438955613014693,0.10644445025009985,0.04645770305733666,0.30974292136500603,0.2654287526480336,0.06876657521957165
0.195,0.029643251747324267,0.027849835451240434,0.036173226380802115,0.04067160699273649,0.07359684006184822,0.0003933611079721008,0.08396145275219179,0.10512797161064817,0.046162823997797496,0.3089274435396142,0.25772704125775414,0.06886759093011319
0.196,0.029521939082370774,0.027968350150133343,0.03558533732838106,0.040821204531799535,0.07676272389706776,0.001129222053266676,0.08352582642259954,0.10379314551934572,0.04586549713618061,0.30810092867436617,0.2501227097341743,0.06899147830752665
0.197,0.02939998760676376,0.02808804575233482,0.035006222224484816,0.04096224810328762,0.08000947001965561,0.0018961603841844065,0.08308319718758145,0.10244103438687072,0.04556590891603366,0.30726468812516583,0.24261845084160177,0.06913836648097534
0.198,0.029277525140362783,0.02820877571479151,0.03443619436264707,0.041094534940261426,0.08333608958080793,0.0026921362757042714,0.08263408557696733,0.10107271136538049,0.04526424454251993,0.3064200421993282,0.23521686702199146,0.06930836969898412
0.199,0.029154678804362923,0.02833039410048646,0.03387555395761764,0.041217878300067554,0.08674153951565287,0.0035151385688130896,0.08217901185435832,0.0996892589977546,0.044960687801605136,0.30556831808875584,0.22792046838707933,0.06950158736305022
0.2,0.029031574779769642,0.028452755751059437,0.03332458798783928,0.04133210759324862,0.09022472250945306,0.004363186388960376,0.08171849528362088,0.09829176787636745,0.044655420890279844,0.30471084772685864,0.2207316708458472,0.06971810407475655
0.201,0.02890833806979279,0.028575716457757465,0.03278357005924417,0.041437068479489636,0.09378448701748457,0.0052343306852777926,0.0812530534132225,0.09688133531178501,0.044348624257539715,0.30384896556426694,0.2136527943689733,0.0699579896958039
0.202,0.028785092266739552,0.028699133130449927,0.032252760289880965,0.041532622931355685,0.0974196273406672,0.006126655690615775,0.08078320137978592,0.09545906401158774,0.044040476455902575,0.30298400625994937,0.20668606139137713,0.07022129942029187
0.203,0.028661959323912804,0.028822863964428777,0.031732405214889,0.04161864926660468,0.10112888375902918,0.007038280302525429,0.0803094512321521,0.09402606076937801,0.04373115400322701,0.3021173022867239,0.19983359535333312,0.07050807385838771
0.204,0.028539059333081075,0.02894676860473981,0.031222737711274512,0.041695042150018874,0.10491094272514272,0.007967359385447991,0.07983231127722139,0.09258343516380002,0.04342083125460531,0.3012501814530638,0.19309741938024502,0.07081833913037759
0.205,0.028416510308032446,0.029070708307754118,0.030723976942044203,0.04176171256577396,0.10876443711963116,0.00891208499439115,0.07935228544875349,0.09113229826741459,0.04310968028413062,0.30038396434616577,0.18647945510086372,0.0711521069698371
0.206,0.028294427974745847,0.029194546099706217,0.030236328319347316,0.04181858776155335,0.11268794657089345,0.009870687520423452,0.0788698727002793,0.08967376136538459,0.04279787077631081,0.2995199617043938,0.17998152160340722,0.07150937483455921
0.207,0.028172925568630384,0.029318146931890776,0.02975998348624509,0.041865611165649734,0.1166799978411314,0.01084143675840858,0.07838556642318276,0.08820893468412866,0.04248556992682494,0.2986594717298929,0.1736053345286851,0.07189012602372405
0.208,0.028052113639308433,0.02944137783222899,0.029295120316901433,0.04190274227839629,0.12073906528067531,0.01182264289735505,0.077899853890888,0.08673892613054832,0.04217294235227561,0.29780377735403013,0.16735250529902995,0.07229432979971982
0.209,0.027932099863316115,0.029564108052913856,0.028841902934838504,0.041929956539191036,0.12486357135245274,0.012812657433918647,0.07741321572994174,0.08526484004275635,0.041860150008455686,0.2969541434692264,0.1612245404813386,0.07272194151309908
0.21,0.02781298886510243,0.029686209213878163,0.028400481748964534,0.04194724517047584,0.12905188722825475,0.013809874009614208,0.07692612541863621,0.08378777595370503,0.041547352116619064,0.2961118141411365,0.1552228412822787,0.07317290272920648
0.211,0.027694882046646857,0.02980755544185021,0.027970993506957854,0.041954614999933484,0.13330233345822104,0.014812729172356844,0.07643904881355344,0.08230882736924307,0.04123470509718157,0.29527800981541164,0.14934870317326546,0.07364714135513435
0.212,0.027577877425989963,0.029928023504781628,0.027553561365618054,0.04195208826220277,0.13761318071482284,0.015819703063131914,0.07595244370425121,0.08082908056242338,0.040922362510306995,0.2944539245332712,0.14360331564267,0.07414457176589391
0.213,0.027462069485039188,0.0300474929415163,0.027148294977693298,0.04193970238132699,0.14198265061251614,0.016829320028592942,0.07546675939606286,0.07934961338597973,0.04061047500300834,0.29364072316994383,0.13798776207252114,0.07466509492876117
0.214,0.027347549026975202,0.03016584618647504,0.026755290594696383,0.04191750973505073,0.14640891660422123,0.017840149160587047,0.07498243632077875,0.07787149410494072,0.040299190262383135,0.2928395387092822,0.13250301973695697,0.07520859852502064
0.215,0.02723440304354971,0.030282968689165357,0.02637463118520507,0.04188557740202817,0.1508901049555814,0.018850804763640167,0.07449990567477342,0.0763957802512623,0.039988652974805604,0.29205146956702976,0.1271499599196355,0.07577495706842564
0.216,0.027122714592546233,0.03039874902827372,0.026006386568065018,0.04184398689290393,0.15542429579799102,0.019859946751521033,0.07401958908395107,0.07492351750234762,0.03967900479086941,0.291277576974151,0.12192934814724996,0.0763640320199664
0.217,0.02701256268559835,0.03051307902006097,0.025650613559973424,0.04179283386614654,0.16000952426118284,0.020866280974133757,0.07354189829473293,0.07345573858513858,0.03937038429590413,0.29051888243078977,0.11684184453623114,0.07697567189890786
0.218,0.026904022186481018,0.030625853820850986,0.0253073561368386,0.04173222782948005,0.16464378168620739,0.021868559475992862,0.07306723489018166,0.07199346220745341,0.039062926985872604,0.28977636524063005,0.11188800424957679,0.0776097123902395
0.219,0.026797163719961572,0.03073697202337385,0.024976645608326204,0.04166229182762249,0.1693250169194378,0.022865580687700098,0.07259599003016849,0.07053769201808734,0.03875676524839118,0.28905096013496573,0.10706827806083964,0.07826597644893774
0.22,0.026692053591231637,0.030846335746840172,0.02465850080495466,0.041583162117001325,0.17405113768821484,0.023856189551975326,0.07212854421440286,0.06908941559714805,0.03845202834856857,0.2883435549954007,0.10238301302229344,0.07894427440146472
0.221,0.02658875371590645,0.03095385072073505,0.02435292827709641,0.04149498782793723,0.17882001205839096,0.02483927758586307,0.07166526706689719,0.0676496034778816,0.03814884241927621,0.2876549886837356,0.09783245323454176,0.07964440404499072
0.222,0.026487321560581947,0.031059426362402984,0.02405992250514564,0.04139793061467723,0.18362946997377344,0.025813782880863494,0.07120651714034557,0.06621920820125192,0.037847330455455304,0.28698604898719043,0.09341674071488887,0.08036615074491582
0.223,0.026387810093866867,0.03116297584860079,0.023779466120199395,0.041292164293506566,0.18847730487698283,0.026778690042811575,0.07075264173876575,0.06479916340430857,0.0375476123119656,0.2863374706866711,0.08913591636202489,0.08110928753128636
0.224,0.02629026774786471,0.03126441618117853,0.023511530134462628,0.04117787446905477,0.1933612754107677,0.02773303007337651,0.07030397675668457,0.0633903829433879,0.037249804704511724,0.28570993375530795,0.08498992101458132,0.08187357519483564
0.225,0.02619473838997474,0.03136366824710782,0.023256074180693413,0.04105525814870941,0.1982791071983818,0.028675880195101373,0.06986084653317007,0.06199376005305745,0.03695402121316759,0.28510406169400243,0.08097859660132256,0.08265876238355431
0.226,0.026101261304994596,0.03146065687302148,0.023013046759917923,0.04092452334506598,0.20322849470110846,0.02960636362190524,0.06942356371907742,0.060610166541634564,0.03666037228799427,0.2845204200104113,0.07710168738075152,0.08346458570078615
0.227,0.02600987118740513,0.03155531087441248,0.022782385496660337,0.040785888666150384,0.2082071031505757,0.030523649277040897,0.06899242915614272,0.05924045202398128,0.03636896525635068,0.2839595148473628,0.0733588412680506,0.08429076980608158
0.228,0.025920598143833646,0.03164756309965045,0.02256401740091529,0.04063958289318082,0.21321257055311343,0.0314269514603244,0.0685677317667331,0.05788544319222955,0.036079904331515825,0.2834217917665205,0.06974961124719971,0.08513702752003979
0.229,0.025833467705603033,0.031737350468940655,0.022357859136088672,0.04048584454563213,0.21824250976313275,0.03231552946656809,0.0681497484534128,0.056545943124878116,0.035793290622368426,0.28290763469268715,0.06627345686599254,0.0860030599344222
0.23,0.025748500851257124,0.031824614008360466,0.022163817292107566,0.04032492143333318,0.2232945106222,0.03318868715697739,0.06773874400767875,0.05522273063465786,0.03550922214391961,0.28241736502372544,0.0629297458115671,0.08688855652876745
0.231,0.02566571403895432,0.031909298879079076,0.02198178866291545,0.04015707019547385,0.22836614216031118,0.03404577248535819,0.06733497102739137,0.0539165596555005,0.035227793828675746,0.28195124091038515,0.05971775556391017,0.08779319529459666
0.232,0.025585119248538863,0.0319913544019532,0.021811660527626616,0.039982555826427256,0.23345495485569484,0.03488617698088956,0.06693866984265838,0.052628158668843864,0.034949097538785084,0.281509456709615,0.05663667512472404,0.08871664286818294
0.233,0.025506724033089477,0.03207073407767389,0.021653310934688846,0.03980165118846053,0.23855848294946044,0.03570933518929691,0.06655006844993804,0.051358230169527855,0.03467322207904337,0.2810921426141565,0.05368560681890553,0.08965855467266362
0.234,0.025430531579720025,0.03214739560263788,0.021506608988528537,0.03961463651164223,0.24367424681151642,0.03651472407429581,0.066169382454295,0.05010745017151612,0.03440025321081038,0.28069936446028315,0.0508635681657869,0.09061857507007458
0.235,0.025356540779360642,0.03222130088078416,0.02137141513825083,0.03942179888140652,0.248799755354202,0.03730186238113409,0.06579681501967549,0.04887646775365331,0.034130273666820116,0.28033112371466207,0.048169493817159216,0.09159633752375564
0.236,0.025284746305230445,0.03229241603153835,0.021247581468034453,0.03922343171450049,0.25393250849014004,0.03807030996416198,0.06543255682711721,0.04766590464563515,0.03386336316680753,0.2799873576403318,0.0456022375589178,0.09259146477147738
0.237,0.025215138699711027,0.03236071139406119,0.02113495198887862,0.0390198342241733,0.2590699996306412,0.03881966708022526,0.06507678604073595,0.04647635485436263,0.033599598433894075,0.2796679396409454,0.04316057437307313,0.09360356900962459
0.238,0.02514770446934147,0.03242616152794187,0.02103336293141488,0.03881131087555677,0.2642097182208181,0.0395495736497456,0.06472966828150845,0.04530838433069976,0.03333905321159924,0.2793726797815704,0.04084320255670291,0.09463225208887152
0.239,0.02508242618761708,0.03248874521037084,0.020942643039429696,0.0385981708323909,0.2693491523072816,0.040259708487371766,0.06439135660885292,0.04416253067660198,0.03308179828142585,0.27910132548363803,0.038648745894403605,0.09567710572185553
0.24,0.025019282605212505,0.03254844542979393,0.02086261386378754,0.038380727396248086,0.2744857911338453,0.04094978850406582,0.06406199151008299,0.04303930289244962,0.03282790148099827,0.27885356239100123,0.036575755880626795,0.0967377117033864
0.241,0.024958248767296007,0.03260524937595357,0.020793090056400277,0.038159297439623326,0.27961712776029507,0.04161956788255797,0.06374170089783454,0.04193918116434962,0.032577427722649197,0.27862901540350554,0.03462271398828127,0.09781364214377294
0.242,0.024899296137486124,0.032659148426133947,0.020733879663924943,0.03793420083426935,0.2847406616987976,0.04226883722806135,0.06343060011557589,0.04086261669114544,0.03233043901236288,0.27842724987391826,0.032788033979926495,0.09890445971572916
0.243,0.024842392728140754,0.03271013812736192,0.02068478442096466,0.037705759876213475,0.2898539015623129,0.04289742269619185,0.06312879195140085,0.03981003155080771,0.03208699446898013,0.2782477729637081,0.03107006425783455,0.10000971791531817
0.244,0.024787503236570238,0.03275821817425716,0.020645600042503064,0.03747429870887739,0.29495436771904293,0.043505185099939905,0.06283636666027889,0.03878181860591692,0.031847150343609514,0.27809003515257513,0.029467090249324913,0.10112896133731372
0.245,0.024734589186935763,0.032803392382189045,0.02061611651547974,0.03724014274566158,0.3000395949468186,0.04409201899752578,0.06255340199497147,0.03777834144787965,0.031610960039213716,0.27795343189624233,0.027977336823753376,0.10226172596552359
0.246,0.024683609077470903,0.032845668655350935,0.0205961183893835,0.03700361809325966,0.305107135081025,0.04465785176292956,0.06227996324580958,0.03679993437952236,0.03137847413044056,0.2778373054262724,0.026598970737667198,0.10340753947858215
0.247,0.02463451853279142,0.03288505894939008,0.02058538506579406,0.03676505097695059,0.31015455964946553,0.04520264264074033,0.06201610328968675,0.03584690243559638,0.031149740383777536,0.2777409466850423,0.025330103104654177,0.104565921571774
0.248,0.024587270460983215,0.0329215792282077,0.020583691086825992,0.03652476716904557,0.3151794624873179,0.04572638178696952,0.06176186264861984,0.03491952144068978,0.030924803778114626,0.2776635973882747,0.024168791886507585,0.10573638429531436
0.249,0.024541815215189156,0.03295524941450965,0.020590806422436415,0.03628309142160647,0.3201794623251157,0.0462290892972341,0.061517269558366984,0.034018038103973885,0.03070370652580596,0.27760445220682756,0.023113044402357775,0.10691843240937922
0.25,0.02449810075937707,0.03298609333380311,0.02060649675659249,0.03604034690458966,0.3251522053425269,0.04671081422374266,0.061282340047504984,0.03314267015009708,0.030486488094274553,0.2775626610588005,0.022160819852508108,0.1081115637559868
0.251,0.024456072837961446,0.03301413865151023,0.02063052377224105,0.03579685465050504,0.33009536768033115,0.04717163358232841,0.06105707802737271,0.03229360648555369,0.030273185228268006,0.277537331502288,0.02131003185380887,0.10931526964761339
0.252,0.024415675148893676,0.03303941680305793,0.02066264543511501,0.03555293300668244,0.33500665790271433,0.04761165135082141,0.060841475393109586,0.031471007399713216,0.030063831972878787,0.27752753121843793,0.020558550983468628,0.11052903527225637
0.253,0.024376849519801007,0.033061962916818816,0.020702616276257035,0.03530889709626233,0.3398838194013588,0.048030997459873215,0.060635512136087664,0.03067500479967036,0.02985845969741382,0.2775322905736403,0.01990420732830426,0.11175234011454364
0.254,0.02433953608668308,0.033081815729868465,0.020750187673245275,0.03506505828890655,0.3447246327320847,0.04842982677744144,0.06043915646784911,0.02990570247804526,0.02965709712032144,0.2775506052490928,0.019344793036456174,0.11298465839250668
0.255,0.024303673474601776,0.03309901749650132,0.020805108129964937,0.034821723682218926,0.349526917874028,0.04880831808794921,0.06025236495560092,0.02916317641274399,0.02945977033526032,0.2775814389257923,0.018878064868697184,0.1142254595096372
0.256,0.024269198979723062,0.03311361388951872,0.02086712355484114,0.03457919559471753,0.35428853640093494,0.04916667306725579,0.06007508266917263,0.02844747509776848,0.029266502838501237,0.2776237260130801,0.01850174674645958,0.11547420852186795
0.257,0.024236048752046345,0.033125653894298605,0.02093597753736536,0.03433777107113261,0.3590073935543044,0.04950511525447836,0.059907243339200146,0.027758619904028066,0.029077315557744256,0.277676374409495,0.018213532293795697,0.11673036661913806
0.258,0.024204157978043355,0.03313518969570475,0.021011411622759595,0.03409774140070052,0.3636814402088597,0.04982388902172807,0.05974876952615613,0.027096605469095383,0.028892226882428585,0.2777382682854264,0.018011087370458097,0.1179933916211968
0.259,0.024173461062472694,0.0331422765579665,0.021093165584604806,0.033859391649025614,0.3683086747218989,0.05012325854286959,0.05959957279987474,0.026461400114816576,0.028711252695590772,0.27780827087789395,0.017892052593428236,0.11926273848723902
0.26,0.02414389180859016,0.03314697269767525,0.0211809776952796,0.033623000204049375,0.37288714465964135,0.05040350676229811,0.05945955392915644,0.025852946291626,0.028534406407225175,0.2778852272884734,0.017854045844154957,0.12053785983889471
0.261,0.024115383595959362,0.03314933915010781,0.02127458499403783,0.033388838336615906,0.3774149483952466,0.050664934364827434,0.059328603081200665,0.025271161048392627,0.028361698989138876,0.27796796727608264,0.017894664758935547,0.12181820649587968
0.262,0.024087869555113495,0.03314943962914986,0.021373723552563183,0.03315716977612689,0.3818902365746879,0.050907858747658206,0.05920660003071434,0.024715936526619405,0.02819313901116823,0.2780553080370449,0.018011489199851027,0.12310322802349988
0.263,0.024061282738294085,0.03314734038103546,0.021478128737918083,0.03292825030179242,0.3863112134479884,0.05113261299545439,0.05909341437867478,0.024187140477778476,0.0280287326786877,0.27814605696574296,0.01820208370389253,0.12439237329099485
0.264,0.024035556285521318,0.033143110032260635,0.021587535472748155,0.03270232734998627,0.39067613806451906,0.05133954485953362,0.05898890578092438,0.023684616802572753,0.027868483871235708,0.27823901438977267,0.018463999908110214,0.12568509103970898
0.265,0.024010623585312307,0.033136819431931176,0.02170167849265755,0.03247963963824093,0.39498332533198194,0.05152901574224959,0.058892924186766504,0.023208186110922138,0.0277123941821554,0.27833297627416986,0.018794778948770262,0.12698083046007372
0.266,0.02398641842933856,0.03312854148898169,0.02182029260064345,0.03226041680638885,0.39923114693935674,0.05170139968755105,0.05880531008784564,0.02275764630152261,0.027560462959090582,0.2784267368894251,0.01919195383269031,0.1282790417764033
0.267,0.023962875160462187,0.03311835100468014,0.021943112918454855,0.03204487907539131,0.4034180321442729,0.05185708237887628,0.05872589477753535,0.022332773159840044,0.027412687345257723,0.27851909143821835,0.019653051778991126,0.12957917683850415
0.268,0.023939928813575043,0.033106324501003155,0.022069875134654273,0.031833236924386075,0.40754246842560016,0.05199646014543319,0.05865450062113042,0.021933320973473766,0.027269062321320817,0.27860883863597463,0.02017559652954282,0.13088068971905048
0.269,0.023917515248863274,0.03309254004546393,0.022200315749272483,0.03162569078652245,0.4116030020023883,0.052119938978062455,0.0585909413370109,0.021559023163780392,0.027129580747747687,0.27869478324088004,0.02075711062643573,0.13218303731555714
0.27,0.0238955712771218,0.033077077073051186,0.022334172314854153,0.03142243076413795,0.41559823822062847,0.05222793355582047,0.05853502228901298,0.0212095929327586,0.026994233407449407,0.27877573852974935,0.02139511765489304,0.1334856799557937
0.271,0.023874034776889416,0.03306001620598233,0.02247118367387122,0.031223636363823845,0.41952684180949174,0.05232086628433505,0.058486540790120285,0.020884723924170043,0.026863009048552614,0.2788505287172815,0.02208714445018443,0.13478808200558523
0.272,0.023852844803239084,0.033041439071975515,0.0226110901925175,0.031029476251876315,0.4233875370090745,0.052399166347099575,0.05844528641765275,0.020584090897873972,0.026735894427179514,0.278917991317263,0.022830723267121426,0.13608971247819
0.273,0.023831941688086455,0.03302142812175713,0.022753633990992374,0.03084010803057816,0.42717910757195243,0.052463268770833724,0.058411041340088045,0.02030735041638737,0.026612874350200957,0.27897697944514127,0.023623393910917275,0.1373900456445361
0.274,0.02381126713197443,0.03300006644646344,0.022898559170425742,0.03065567803568078,0.4309003966409283,0.05251361350618607,0.05838358065567128,0.020054141542690508,0.0264939317180453,0.2790263640617397,0.024462705828213437,0.13868856164362225
0.275,0.023790764287293185,0.03297743759553129,0.023045612036640583,0.03047632115537732,0.4345503065051725,0.05255064452505514,0.0583626727429866,0.019824086548349468,0.026379047567728818,0.2790650361577082,0.025346220157147974,0.13998474709232092
0.276,0.02377037783301283,0.032953625395646224,0.02319454132092467,0.03030216067104999,0.43812779823672704,0.05257480893582333,0.05834807962355982,0.019616791631040957,0.026268201116357928,0.2790919088778272,0.026271511735364187,0.14127809569362776
0.277,0.02375005404100367,0.032928713771171576,0.023345098397967282,0.03013330811993416,0.4416318912090611,0.052586556117801705,0.05833955733651141,0.019431847640581864,0.026161369805413302,0.27910591958366526,0.027236171064823265,0.14256810884241095
0.278,0.023729740834123273,0.03290278656647844,0.023497037501093953,0.029969863179884072,0.44506166249909856,0.05258633687615282,0.05833685632505188,0.019268830812554618,0.026058529346102925,0.2791060318529063,0.02823780623235398,0.14385429622754958
0.279,0.023709387836289876,0.032875927370498076,0.023650115934858832,0.02981191357628638,0.44841624617382997,0.052574602618545456,0.05833972183451517,0.019127303508648073,0.025959653766009266,0.27909123741357467,0.02927404478495335,0.1451361764293151
0.28,0.023688946414780906,0.03284821934379544,0.02380409428501978,0.02965953501117935,0.4516948324624029,0.05255180455470052,0.0583478943214718,0.01900681496268567,0.025864715457154,0.27906055801153046,0.030342535559031356,0.14641327751072636
0.281,0.02366836971514186,0.032819745048496766,0.023958736625846046,0.029512791114510255,0.4548966668145419,0.05251839291996653,0.05836110987331116,0.018906902031387382,0.025773685225609178,0.27901304720978365,0.03144095046290633,0.14768513760141344
0.282,0.023647612689030942,0.0327905862813776,0.024113810724714364,0.029371733417465514,0.4580210488464802,0.05247481622401254,0.05837910063758241,0.01882708994873699,0.025686532342597115,0.2789477921182718,0.03256698621205035,0.1489513054722654
0.283,0.023626632115477178,0.032760823910475266,0.02426908824381802,0.02923640134771179,0.46106733117627,0.05242152052566332,0.05840159526025989,0.018766893082841477,0.02560322459708865,0.27886391505298436,0.033718366016529944,0.1502113410988891
0.284,0.023605386616048756,0.03273053771552807,0.024424344938840794,0.02910682224628806,0.46403491815132314,0.05235894873490127,0.058428319331910596,0.018725815694119245,0.025523728349845825,0.27876057512339136,0.034892841220199144,0.1514648162116075
0.285,0.023583836664469105,0.032699806232609055,0.024579360854366426,0.028983011405886737,0.46692326447211296,0.052287539943007624,0.05845899584069857,0.01870335269359816,0.025448008588801117,0.2786369697473697,0.03608819289107098,0.15271131482949832
0.286,0.023561944591289068,0.032668706603222186,0.02473392051575028,0.028864972130107806,0.46973187371675573,0.05220772878176164,0.058493345630914656,0.01869899040009077,0.025376028985707812,0.27849233609286816,0.03730223336230503,0.15395043377580914
0.287,0.023539674584189305,0.03263731442817272,0.024887813117198825,0.0287526958133105,0.47246029677200735,0.0521199448125298,0.0585310878657009,0.01871220729504883,0.025307751953901565,0.27832595244537145,0.03853280772325452,0.1551817831720469
0.288,0.02351699268450403,0.03260570362645849,0.025040832705737398,0.028646162040634915,0.4751081301771049,0.052024611945922804,0.058571940492459694,0.01874247477381445,0.02524313870699028,0.2781371394999268,0.039777795260052845,0.15640498690820182
0.289,0.023493866780505412,0.03257394629947468,0.0251927783608331,0.028545338707715927,0.477675014387897,0.05192214789252707,0.05861562070938756,0.018789257892060336,0.025182149318252724,0.2779252615759282,0.04103511084538722,0.15761968308698124
0.29,0.02347026659795894,0.032542112600803745,0.025343454369403214,0.02845018215965613,0.4801606319693374,0.051812963645132284,0.058661845431587256,0.01885201610617122,0.0251247427804897,0.27768972775251144,0.04230270627730333,0.15882552444046263
0.291,0.023446163688387003,0.032510270611846595,0.02549267039605902,0.028360637348782074,0.482564705724669,0.051697462992672846,0.058710331755153715,0.018930204006399214,0.02507087706605435,0.2774299929218019,0.04357857156708926,0.16002217871814708
0.292,0.02342153141546049,0.0324784862236089,0.025640241648403804,0.02827663801060217,0.4848869967696995,0.05157604206610642,0.05876079741764135,0.01902327204168393,0.025020509186799652,0.2771455587570355,0.04486073617646387,0.1612093290458601
0.293,0.023396344939843865,0.03244682302486413,0.025785989037273534,0.02819810685744823,0.48712730256088455,0.05144908891629141,0.05881296125326201,0.019130667235087696,0.024973595253762037,0.2768359745923172,0.046147270204539736,0.162386674255208
0.294,0.023370581202782657,0.03241534219700324,0.025929739331839185,0.028124955789088003,0.4892854548864595,0.051316983123818855,0.058866543641080404,0.019251833888846274,0.024930090536432893,0.27650083821063387,0.047436285524991816,0.16355392918329376
0.295,0.023344218908681783,0.03238410241572712,0.026071325309530356,0.028057086119665516,0.4913613178305692,0.05118009544068918,0.058921266944425475,0.019386214278097266,0.024889949521548584,0.27613979653682996,0.048725936874004144,0.16471082494233164
0.296,0.02331723850687495,0.032353159759726226,0.026210585900708853,0.027994388820272016,0.4933547857207514,0.05103878746355051,0.05897685593976323,0.019533249332342423,0.02485312597130462,0.2757525462324039,0.05001442288934471,0.16585710915864751
0.297,0.023289622172764347,0.032322567626405105,0.026347366328069163,0.02793674477651966,0.4952657810690888,0.05089341133812894,0.05903303823331707,0.019692379303754153,0.024819572980940056,0.2753388341893974,0.051299987100869276,0.16699254618049494
0.298,0.02326135378850386,0.032292376654611446,0.02648151824065993,0.027884025060594127,0.4970942525168285,0.050744309494361414,0.05908954466392365,0.019863044421447987,0.024789243035620898,0.27489845792091255,0.05258091887269082,0.16811691725414016
0.299,0.023232418923341408,0.032262634654361924,0.026612899842480088,0.027836091217343185,0.49884017279135867,0.05059181441162277,0.0591461096906934,0.02004468553088711,0.024762088066560772,0.2744312658459615,0.05385555429713408,0.1692300206675652
0.3,0.02320280481379759,0.032233386543501275,0.026741376015516957,0.027792795563960197,0.5005035366837307,0.05043624841342677,0.05920247176433748,0.02023674471767362,0.024738059506367503,0.27393715746651287,0.05512227704057346,0.17033167186104128
0.301,0.023172500343782678,0.03220467429129849,0.02686681843714712,0.02775398150294668,0.5020843590545923,0.05027792349097896,0.05925837368105768,0.02043866591513717,0.024717108343655786,0.27341608343495394,0.056379519141163834,0.1714217035036122
0.302,0.023141496024852312,0.032176536868976174,0.026989105691674953,0.027719483847930278,0.5035826728764079,0.050117141154924806,0.059313562918128664,0.020649895495256892,0.024699185176945474,0.2728680455108079,0.05762576175839112,0.1724999655342566
0.303,0.0231097839767328,0.03214901020717713,0.027108123375860348,0.027689129162049207,0.5049985273203796,0.04995419231473825,0.059367791950346464,0.0208698828426412,0.024684240267974306,0.27229309640627314,0.05885953587434444,0.17356632516632123
0.304,0.02307735790827779,0.03212212716040444,0.027223764198133382,0.027662736108512248,0.5063319858967333,0.04978935718506328,0.059420818546755676,0.021098080911401702,0.02467222359448298,0.2716913395209898,0.060079422946526836,0.17462066685371208
0.305,0.02304421309898931,0.03209591747846239,0.027335928071276334,0.0276401158129568,0.5075831246569771,0.0496229052183267,0.059472406047214474,0.021333946764821157,0.024663084902543774,0.2710629285671176,0.06128405551189638,0.17566289221709167
0.306,0.02301034638118582,0.032070407784949906,0.027444522198214794,0.027621072237227526,0.5087520304661615,0.04945509506280939,0.05952232361870491,0.021576942097846264,0.024656773758423112,0.270408067086108,0.06247211774179306,0.17669291992818653
0.307,0.022975756122925278,0.03204562156284134,0.027549461150652176,0.02760540256418077,0.5098387993520869,0.04928617454531511,0.05957034649146944,0.02182653374238405,0.02465323959994145,0.2697270078587434,0.06364234594731223,0.1777106855499009
0.308,0.022940442211681202,0.03202157914721234,0.027650666940183557,0.027592897593137263,0.5108435349373048,0.049116380677456606,0.05961625617536069,0.022082194155540604,0.024652431787211115,0.2690200522102514,0.0647935290345642,0.17871614132974475
0.309,0.022904406038829574,0.031998297725118544,0.0277480690815557,0.027583342145680794,0.5117663469584866,0.04894593968459232,0.05965984065692463,0.02234340189083486,0.024654299652671168,0.26828754921278936,0.06592450890911902,0.17970925594400491
0.31,0.0228676504848367,0.03197579134267903,0.027841604647794047,0.027576515481419515,0.5126073498767202,0.04877506705621559,0.05970089457791409,0.022609642052595365,0.024658792550246018,0.26752989478813727,0.06703418082886788,0.18069001419022127
0.311,0.022830179905101947,0.0319540709193915,0.02793121831689996,0.027572191723423026,0.5133666615809149,0.04860396761664288,0.05973921939591075,0.02288040673368654,0.02466585990350255,0.2667475307137791,0.06812149370436718,0.18165841662605725
0.312,0.02279200011631276,0.03193314426972744,0.02801686240992774,0.027570140292890236,0.5140444021854416,0.048432835614614374,0.05977462352787213,0.02315519543677034,0.024675451252663225,0.26594094353555714,0.06918545034587184,0.18261447915325965
0.313,0.02275311838318095,0.03191301613206296,0.028098496920308334,0.027570126352597438,0.5146406929218084,0.048261854830441354,0.05980692247735838,0.023433515479349985,0.024687516300405953,0.265110663389886,0.07022510765629118,0.18355823254610937
0.314,0.022713543405454447,0.0318936882049801,0.02817608953425813,0.02757191125857768,0.5151556551235407,0.048091198699215715,0.05983593894627501,0.023714882382840235,0.024702004956302284,0.26425726273782973,0.07123957676952046,0.1844897219243586
0.315,0.02267328530511392,0.031875159191057906,0.02824961564221684,0.027575253019401655,0.5155894093032409,0.04792103044861961,0.05986150293185147,0.02399882024588766,0.024718867379803493,0.26338135501269283,0.07222802313375155,0.1854090061713511
0.316,0.022632355613696503,0.03185742484819962,0.028319058341279957,0.027579906762438038,0.5159420743213307,0.04775150324994103,0.059883451809510796,0.024284862102202848,0.02473805402156654,0.26248359318200054,0.07318966653943311,0.18631615729860412
0.317,0.022590767259725437,0.03184047804855364,0.028384408428654508,0.027585625206357618,0.5162137666470455,0.04758276038087785,0.05990163040212296,0.024572550263093212,0.024759515662894565,0.2615646682244763,0.07412378109172249,0.18721125975904615
0.318,0.02254853455626492,0.03182430884503605,0.028445664386278827,0.027592159139178226,0.5164045997133477,0.047414935398834124,0.05991589103605052,0.024861436644896814,0.024783203452954924,0.26062530752274937,0.07502969512729651,0.18809440971159658
0.319,0.02250567318856352,0.03180890454546424,0.02850283235675653,0.02759925790109552,0.5165146833685065,0.047248152323420285,0.05992609358429459,0.025151083081494267,0.024809068943462697,0.259666273173283,0.07590679107549603,0.18896571424021524
0.32,0.022462200201911375,0.03179424979431528,0.028555926110810707,0.027606669871271517,0.5165441234274851,0.0470825258269882,0.05993210549709537,0.025441061622058614,0.024837064120436857,0.25868836021599334,0.07675450526377148,0.18982529053074584
0.321,0.022418133989763195,0.03178032666214919,0.028604967006499164,0.02761414295770647,0.5164930213262553,0.04691816143207056,0.059933801820307234,0.02573095481421462,0.024867141432607306,0.25769239478692807,0.07757232766732947,0.19067326500893342
0.322,0.022373494282296454,0.03176711474275721,0.028649983940400546,0.027621425089329375,0.5163614738819954,0.046755155714775176,0.05993106520192366,0.02602035597274224,0.024899253816085622,0.25667923219824035,0.078359801602826,0.19150977244302989
0.323,0.022328302135555124,0.0317545912580713,0.02869101329096786,0.027628264709323006,0.5161495731619273,0.04659359651328481,0.05992378588709104,0.02630886943394947,0.024933354714874,0.2556497549502119,0.07911652336586408,0.19233495501415268
0.324,0.022282579921361786,0.03174273117085238,0.028728098854155268,0.02763441126881679,0.5158574064630849,0.046433563140657566,0.059911861701944666,0.026596110795787754,0.02496939809691376,0.25460487068046395,0.0798421418119602,0.19314896135732534
0.325,0.022236351318200443,0.03173150730508605,0.028761291771458756,0.027639615720003802,0.5154850564045432,0.046275126601267175,0.059895198026609496,0.02688170714372922,0.025007338465459692,0.2535455100555881,0.0805363578806295,0.1939519455758982
0.326,0.02218964130322402,0.03172089047396634,0.028790650450357235,0.027643631007815337,0.5150326011324385,0.04611834981024007,0.05987370775765858,0.02716529726242695,0.02504713086578031,0.25247262461029274,0.08119892406210215,0.19474406623185117
0.327,0.02214247614555609,0.03171084961528837,0.028816240477207915,0.027646212559265037,0.5145001146370961,0.04596328781551166,0.05984731126040472,0.02744653183316396,0.025088730887255106,0.25138718453901365,0.08182964380625511,0.1955254853143471
0.328,0.022094883401006207,0.03170135193399386,0.028838134522509388,0.02764711876969629,0.5138876671801818,0.04580998802218198,0.059815936311298654,0.027725073617104554,0.02513209466111743,0.2502901764449691,0.08242837087336423,0.19629636718909008
0.329,0.022046891908322094,0.03169236305161708,0.028856412238518855,0.027646111485233566,0.5131953258287503,0.045658490419086435,0.05977951803072487,0.028000597624353616,0.02517717885411633,0.2491826010517031,0.08299500862644209,0.19705687753159062
0.33,0.021998531786990284,0.03168384716223268,0.02887116014918117,0.02764295648084088,0.5124231550920472,0.04550882780750394,0.059737998806481694,0.028272791268931858,0.025223940658461452,0.24806547088235123,0.08352950926533263,0.1978071822483651
0.331,0.021949834436677595,0.03167576719456059,0.028882471532367792,0.02763742393355964,0.5115712176563462,0.04536102603195688,0.05969132820814616,0.028541354509720892,0.025272337778430312,0.24693980791216327,0.08403187300318674,0.19854744639110958
0.332,0.02190083253823452,0.031668084979717695,0.028890446294510295,0.027629288890536997,0.5106395752127662,0.04521510421296563,0.059639462892656786,0.028805999977616892,0.025322328414021267,0.24580664120006435,0.08450214718646663,0.19927783306978558
0.333,0.02185156005628559,0.031660761424150134,0.028895190837657465,0.027618331731492158,0.5096282893728941,0.04507107498162519,0.05958236650150327,0.02906645308904699,0.025373871242033476,0.2446670045055349,0.08494042536025273,0.19999850237116767
0.334,0.021802052243273713,0.03165375668714158,0.02889681791906178,0.02760433862535688,0.5085374226671616,0.0449289447157185,0.05952000955009507,0.029322452146108378,0.02542692539491475,0.2435219338973324,0.08534684628102548,0.20070961028972992
0.335,0.02175234564484505,0.03164703036227535,0.02889544650330303,0.02758710198077617,0.5073670396212137,0.044788713777077827,0.059452369309988796,0.029573748423482208,0.02548145043774317,0.24237246536074405,0.08572159287941421,0.20141130767758414
0.336,0.02170247810642976,0.03164054166212633,0.02889120160689712,0.027566420890155322,0.5061172079057529,0.04465037674982056,0.05937942968477168,0.029820106242266848,0.025537406343583303,0.24121963240976158,0.08606489117561315,0.20210373922009725
0.337,0.021652488780758844,0.03163424960548534,0.028884214135262837,0.0275421015669239,0.5047879995554653,0.04451392267902781,0.05930118108048123,0.030061303030822824,0.02559475346754432,0.2400644637100278,0.08637700915030153,0.20278704244352141
0.338,0.02160241813604337,0.03162811320629378,0.028874620711852185,0.027513957775695125,0.50337949225273,0.044379335309469393,0.05921762027150677,0.0302971293726449,0.02565345251978079,0.23890798071761424,0.08665825557391783,0.20346134676092079
0.339,0.02155230796454673,0.0316220916635913,0.02886256349919384,0.027481811254991217,0.501891770671704,0.04424659332395128,0.05912875026299543,0.030527389041284447,0.025713464537673095,0.23775119533801467,0.08690897879726224,0.20412677256226436
0.34,0.021502201391098975,0.03161614455166178,0.028848190011670657,0.027445492132315306,0.5003249278783942,0.04411567058090413,0.05903458015072758,0.030751899022216072,0.025774750857474285,0.23659510760928756,0.08712956550634064,0.20478343035431557
0.341,0.021452142881239575,0.03161023200955347,0.028831652919892523,0.02740483933133862,0.49867906678199686,0.04398653635091668,0.05893512497944179,0.03097048952161398,0.025837273085598807,0.23544070341320322,0.08732043944436457,0.2054314199554115
0.342,0.02140217824844335,0.0316043149291816,0.028813109846639585,0.02735970097106634,0.4969543016326547,0.043859155551949594,0.05883040560045117,0.031183003961893503,0.025900993069782118,0.23428895221852813,0.0874820601036029,0.2060708297498469
0.343,0.0213523546600157,0.031598355141081426,0.028792723154404676,0.027309934756801067,0.4951507595604278,0.04373348898309551,0.05872044852920572,0.031389298963931174,0.02596587287019608,0.23314080486110778,0.08761492138969715,0.2067017360062386
0.344,0.021302720641050262,0.03159231559697197,0.028770659724640896,0.027255408362795986,0.4932685821504022,0.043609493556740465,0.058605285803407486,0.03158924431585941,0.02603187473060856,0.2319971913661995,0.08771955026083615,0.20732420226382395
0.345,0.021253326075896518,0.03158616054824266,0.028747090728793313,0.027195999806318552,0.4913079270488482,0.04348712252898429,0.058484954842138635,0.03178272292829508,0.0260989610495412,0.2308590188189783,0.087796505344253,0.20793827879038176
0.346,0.02120422220652656,0.03157985571955971,0.028722191391236083,0.02713159781293398,0.4892689695954784,0.04336632572825074,0.05835949830645521,0.03196963077581913,0.026167094351390523,0.22972716928943349,0.08784637553257742,0.2085440021148434
0.347,0.021155461627258208,0.031573368476887395,0.028696140744153574,0.02706210217265422,0.48715190447716156,0.04324704978185422,0.05822896396184901,0.032149876824451064,0.026236237257396926,0.22860249781774283,0.0878697785627373,0.20914139463725342
0.348,0.0211070982753546,0.03156666798923089,0.02866912137446555,0.026987424086680756,0.4849569473990899,0.0431292383405057,0.05809340454289342,0.03232338294477348,0.02630635245636329,0.227485830466036,0.08786735958025035,0.2097304643180358
0.349,0.02105918741711735,0.03155972538352487,0.028641319162788795,0.026907486504389018,0.48268433677019745,0.043012832300638675,0.05795287762041407,0.03249008381029662,0.02637740267499807,0.22637796244220987,0.087839789691797,0.21031120444793516
0.35,0.021011785629191784,0.03155251389206494,0.028612923014571856,0.02682222445022477,0.48033433540003184,0.04289777002452023,0.057807445471353885,0.032649926780623596,0.026449350647780718,0.2252796563011998,0.0877877645089644,0.21088359349937602
0.351,0.020964950774805213,0.0315450089919756,0.02858412458345301,0.026731585340137184,0.47790723220415593,0.04278398755810495,0.057657174951517356,0.03280287176887728,0.0265221590862513,0.22419164022883933,0.08771200268609582,0.21144759505931424
0.352,0.02091874197483029,0.03153718853616557,0.028555117987037918,0.02663552928717101,0.4754033439144508,0.04267141884651619,0.05750213737126711,0.032948891092901375,0.026595790647664534,0.22311460641333036,0.08761324445506398,0.21200315784321733
0.353,0.02087321957360412,0.03152903287536443,0.028526099515285605,0.02653402939582301,0.47282301678980054,0.042559995947014,0.057342408374130655,0.033087969309729376,0.026670207902962095,0.22204920950914395,0.0874922501598578,0.21255021578933694
0.354,0.020828445099593706,0.03152052497075691,0.028497267331784114,0.026427072044658138,0.47016662832155875,0.04244964923924365,0.05717806781824002,0.033220103033009214,0.02674537330406697,0.22099606519801096,0.0873497987936996,0.21308868823228094
0.355,0.020784481221052083,0.031511650496833646,0.02846882116823726,0.026314657156819504,0.4674345889274781,0.042340307632447075,0.05700919966044656,0.03334530073315268,0.026821249150478718,0.21995574885123623,0.0871866865414491,0.2136184801548457
0.356,0.020741391696884777,0.03150239793410787,0.02844096201253244,0.026196798457887124,0.4646273436273777,0.04223189876930782,0.05683589184302214,0.03346358252015551,0.02689779755523707,0.21892879429719594,0.08700372532987065,0.21413948251691176
0.357,0.020699241322963417,0.031492758651307004,0.028413891790807323,0.026073523720732933,0.4617453736941285,0.04212434922597499,0.05665823618286021,0.03357497990921156,0.026974980410284604,0.2179156926973978,0.08680174138831022,0.2146515726599368
0.358,0.02065809587413303,0.03148272697686211,0.02838781304394485,0.025944874996825244,0.4587891982745043,0.042017584707942646,0.05647632826315359,0.03367953556924032,0.02705275935132098,0.21691689153416274,0.08658157382214648,0.2151546147850891
0.359,0.02061802204223083,0.031472300259496655,0.028362928598989746,0.025810908833589632,0.4557593759760017,0.041911530241430364,0.0562902673275104,0.03377730305468035,0.027131095722247013,0.2159327937126375,0.08634407320127602,0.2156484605023985
0.36,0.020579087370341743,0.03146147891797059,0.02833944123601016,0.025671696477292873,0.45265650641732014,0.04180611036007418,0.05610015617642924,0.033868346520839386,0.027209950539342914,0.2149637567795646,0.08609010016576539,0.2161329494477263
0.361,0.020541360183620107,0.03145026648003361,0.028317553350949685,0.02552732406094912,0.4494812317414651,0.04170124928669298,0.05590610106601805,0.03395274042323241,0.02728928445535797,0.21401009226109696,0.0858205240506664,0.21660790996383075
0.362,0.02050490951691242,0.0314386696107667,0.028297466615053137,0.025377892776768836,0.4462342380911927,0.041596871110012965,0.0557082116087814,0.03403056920140482,0.027369057723758125,0.21307206512176194,0.08553622153184456,0.21707315984129544
0.363,0.0204698050394412,0.03142669813046986,0.028279381631486303,0.025223519032578454,0.44291625704668475,0.041492899956315395,0.055506600676293164,0.034101926947829764,0.027449230163445443,0.21214989334636233,0.08523807529451798,0.2175285071146057
0.364,0.02043611697685799,0.031414365022323386,0.028263497589756364,0.025064334591636855,0.4395280670251154,0.04138926015604999,0.05530138430346587,0.034166917062667515,0.027529761124324925,0.21124374764626697,0.08492697272596215,0.2179737509083312
0.365,0.020403916030883318,0.03140168643003052,0.028250011918633883,0.024900486695257393,0.43607049464118575,0.04128587640559902,0.05509268159414113,0.03422565189525532,0.027610609454098156,0.21035375129106382,0.08460380463367362,0.218408682327957
0.366,0.02037327329682036,0.03138868164565349,0.028239119938298744,0.024732138167584575,0.43254441602715304,0.04118267392441145,0.05488061462766618,0.03427825237328505,0.027691733466632333,0.2094799800661037,0.08426946399006632,0.21883308538965734
0.367,0.02034426017913508,0.03137537308790285,0.02823101451246484,0.024559467501916732,0.42895075811034344,0.04107957860783848,0.054665308366048174,0.03432484762062956,0.0277730909121916,0.20862246235588766,0.08392484470472986,0.21924673798314984
0.368,0.02031694830525487,0.031361786271036085,0.02822588570130404,0.024382668927944957,0.4252904998456432,0.04097651717594978,0.05444689056127603,0.03436557456480578,0.027854638949792718,0.207781179352804,0.0835708404251581,0.21964941286161918
0.369,0.020291409437705125,0.03134794976458326,0.028223920415978276,0.024201952459297797,0.42156467339966347,0.04087341731870779,0.05422549166225901,0.03440057753502014,0.027936334121767756,0.2069560653902317,0.08320834336688829,0.22004087865276853
0.37,0.020267715384666637,0.03133389514400731,0.028225302075650258,0.02401754392083511,0.41777436528223877,0.04077020783781607,0.05400124472079855,0.034430007851772824,0.028018132330699528,0.20614700839887473,0.08283824317385949,0.22042090088515842
0.371,0.020245937908936373,0.03131965693246683,0.028230210267847205,0.02382968495515374,0.41392071741975234,0.04066681878554196,0.05377428529596344,0.03445402340895675,0.028099988818671946,0.2053538504851368,0.08246142580969128,0.2207892430242908
0.372,0.020226148635366776,0.03130527253381588,0.02823882041298062,0.023638633007787013,0.4100049281637456,0.04056318160079491,0.0535447513563196,0.03447278824934303,0.028181858148864182,0.2045763886302941,0.08207877248040475,0.22114566751371584
0.373,0.020208418956722048,0.031290782156954716,0.02825130343386383,0.023444661290635688,0.4060282532275328,0.040459229242654875,0.05331278317940583,0.034486472134319525,0.028263694189386613,0.2038143755093554,0.08169115858891687,0.22148993681751186
0.374,0.02019281993799941,0.03127622873178151,0.02826782543092243,0.023248058723122158,0.4019920065431748,0.04035489632150689,0.05307852324797405,0.03449525010867602,0.02834545009932573,0.20306752042845508,0.081299452721557,0.2218218144620566
0.375,0.02017942221918081,0.03126165781696876,0.028288547363789156,0.023049129850607347,0.3978975610311974,0.04025011922787405,0.05284211614247202,0.03449930206122556,0.028427078316957635,0.20233549037957807,0.08090451566671299,0.2221410660760574
0.376,0.020168295916461226,0.03124711749982037,0.02831362473988391,0.022848194739604484,0.39374634927539226,0.04014483625893766,0.05260370842924299,0.034498812282032415,0.02850853055020523,0.20161791121132194,0.08050719946563414,0.22244746042871127
0.377,0.020159510521940052,0.031232658288592598,0.028343207310597314,0.022645588849377365,0.38953986409496905,0.040038987742688374,0.05236344854389317,0.03449396901704191,0.02858975776939488,0.20091436891417716,0.08010834649530232,0.2227407704662167
0.378,0.02015313480183738,0.031218332997573737,0.028377438775771004,0.022441662879536268,0.3852796590060122,0.03993251615956609,0.05212148666936305,0.03448496402091733,0.028670710202459,0.2002244110187591,0.07970878858312078,0.22302077434695808
0.379,0.020149236693207905,0.03120419662532488,0.028416456497125646,0.022236782593271106,0.38096734856406594,0.03982536626136689,0.05187797460815548,0.03447199210903324,0.028751337332700095,0.19954754810521677,0.07930934615299137,0.22328725647568898
0.38,0.0201478831992221,0.03119030622650932,0.028460391221322337,0.02203132861595048,0.3766046085796082,0.03971748518715332,0.05163306564824871,0.03445525070955357,0.02883158789922409,0.19888325542188015,0.07891082740226978,0.22354000853695458
0.381,0.020149140282975923,0.031176720777738254,0.028509366813317893,0.02182569620889971,0.3721931761981366,0.0396088225757886,0.051386914422159105,0.034434939416574654,0.02891140990019509,0.19823097461111128,0.07851402750886474,0.22377883052788822
0.382,0.020153072759823414,0.031163501037889098,0.028563500000572648,0.021620295018217234,0.3677348498365255,0.0394993306746575,0.051139676758770077,0.03441125954525977,0.028990750599023302,0.19759011554015124,0.07811972786784992,0.22400353179032229
0.383,0.020159744188230137,0.031150709403358727,0.02862290012867492,0.02141554879861412,0.3632314889672483,0.03938896444411175,0.05089150952765581,0.03438441368990863,0.029069556533634393,0.19696005823465024,0.07772869535694879,0.22421393204182635
0.384,0.02016921675906864,0.0311384097587003,0.028687668928834828,0.021211895112236003,0.3586850137420871,0.03927768165697549,0.0506425704758536,0.03435460528584022,0.029147773528922342,0.1963401549122198,0.07734168163040356,0.2244098624050122
0.385,0.020181551183363507,0.03112666732312326,0.02875790029769618,0.021009785002477334,0.3540974044470417,0.03916544299251378,0.05039301805723292,0.03432203817602876,0.02922534671247252,0.1957297321129032,0.07695942244084833,0.22459116643411717
0.386,0.02019680657851114,0.031115548493245555,0.028833680089836163,0.020809682642806995,0.3494707007804077,0.03905221212410345,0.050143011254761845,0.034286916183463384,0.029302220533701243,0.19512809292300087,0.07658263698888859,0.22475770113765908
0.387,0.0202150403529819,0.03110512068253135,0.02891508592331687,0.02061206496064777,0.3448070009465775,0.038937955799947514,0.04989270939616575,0.03424944269019269,0.029378338786490907,0.19453451928814705,0.07621202730027861,0.22490933799559057
0.388,0.020236308089631765,0.03109545215770704,0.029002186998681522,0.02041742123634045,0.34010846055929,0.03882264391616692,0.04964227196353663,0.034209820224011235,0.029453644635426497,0.19394827441098011,0.07584827763065854,0.22504596396918305
0.389,0.020260663427700523,0.031086611872557995,0.02909504393172666,0.020226252677321598,0.33537729135014527,0.038706249581840144,0.0493918583975134,0.034168250053689266,0.029528080645789566,0.19336860522814822,0.07549205389815737,0.22516748250159355
0.39,0.020288157943615905,0.03107866929941236,0.02919370860047015,0.020039071967618994,0.33061575968096674,0.038588749175645844,0.0491416278967919,0.03412493179361636,0.02960158881737509,0.19279474496079013,0.07514400314418335,0.2252738145069701
0.391,0.020318841030703808,0.031071694258660354,0.02929822400666166,0.019856402792816863,0.32582618486211073,0.038470122393900505,0.048891739213704086,0.034080063018598276,0.029674110622346997,0.1922259157320775,0.0748047530228429,0.2253648993458795
0.392,0.020352759777979852,0.031065756746613545,0.02940862415215527,0.019678779340621913,0.321010937282272,0.03835035228986421,0.048642350446677286,0.03403383888957959,0.029745587047186134,0.19166133124493615,0.07447491131941172,0.22544069578477935
0.393,0.0203899588481398,0.031060926762048625,0.029524933930458228,0.019506745777149545,0.316172436358503,0.03822942530418138,0.04839361883036121,0.033986451790915785,0.029815958638900367,0.19110019951276774,0.07415506549824524,0.22550118293724922
0.394,0.020430480354952887,0.031057274131782563,0.029647169033665672,0.019340855699061195,0.3113131483176226,0.038107331286385354,0.04814570052416219,0.033938090979863396,0.029885165555540882,0.1905417256357692,0.07384578228056932,0.22554636118447677
0.395,0.020474363740237294,0.031054868335642943,0.02977533587497784,0.019181671561737702,0.3064355838219795,0.03798406350747453,0.047898750399947426,0.03388894224890809,0.029953147621067253,0.1899851146151829,0.07354760725261551,0.22557625307255535
0.396,0.02052164565061602,0.03105377833115717,0.029909431526903733,0.019029764083727533,0.3015422954536804,0.037859618663533094,0.04765292182960469,0.033839187601499024,0.03001984438454574,0.189429574197525,0.07326106450466513,0.22559090418392505
0.397,0.020572359814176492,0.031054072378301347,0.030049443675205106,0.01888571162782228,0.2966358750718586,0.03773399687044435,0.047408366473258925,0.033789004941751695,0.030085195183686648,0.18887431774060393,0.07298665630160081,0.22559038398017126
0.398,0.0206265369172226,0.031055817864572746,0.030195350588629072,0.018750099559146527,0.29171895105744144,0.03760720164977008,0.04716523406882522,0.03373856777859312,0.030149139212591707,0.18831856709318337,0.07272486278564981,0.22557478661315233
0.399,0.02068420448128095,0.031059081130749764,0.030347121104525452,0.018623519580685827,0.2867941854593323,0.03747923990596712,0.04692367222372279,0.03368804494475191,0.030211615593611334,0.18776155548043683,0.07247614171205034,0.22554423170155102
0.4,0.020745386740474974,0.031063927297682297,0.030504714630530023,0.01850656904672459,0.28186427105527384,0.03735012189520129,0.0466838262094816,0.033637600331007156,0.03027256345316536,0.18720253038779383,0.0722409282183345,0.22549886507046832
0.401,0.02081010451943252,0.03107042009453997,0.030668081162511986,0.01839985025464841,0.27693192833986424,0.03721986118615146,0.04644583876001595,0.03358739263594088,0.030331922001431005,0.18664075643645464,0.0720196346278904,0.22543885945217942
0.402,0.020878375111769255,0.03107862168894009,0.030837161319074515,0.018303969715659736,0.2719999024516659,0.03708847461326797,0.04620984987419461,0.03353757513158873,0.030389630615770928,0.1860755182444919,0.07181265028845045,0.22536441514672886
0.403,0.02095021215926543,0.031088592519361604,0.03101188639283763,0.018219537404973053,0.26707096005067144,0.036955982222989944,0.045975996623241304,0.03348829544519901,0.030445628927828195,0.18550612326807459,0.0716203414460623,0.22527576064111896
0.404,0.0210256255318515,0.03110039113018408,0.031192178418771057,0.01814716599211746,0.26214788615685386,0.03682240721341454,0.0457444129633658,0.03343969535737135,0.030499856914116753,0.18493190461773074,0.07144305115497993,0.22517315318552364
0.405,0.02110462120856632,0.031114074009729157,0.03137795025975425,0.018087470051966772,0.2572334809599563,0.03668777586790545,0.04551522955392237,0.03339191061672545,0.03055225498992254,0.18435222384474312,0.0712810992238424,0.22505687932457477
0.406,0.021187201159832685,0.031129695431662698,0.03156910570960044,0.01804106525710763,0.2523305566103282,0.0365521174831316,0.04528857358134018,0.033345070771188416,0.03060276410626482,0.18376647369293847,0.07113478219835814,0.22492725538098837
0.407,0.021273363231346744,0.03114730730007347,0.03176553961368739,0.018008567552186987,0.24744193400008438,0.03641546429196571,0.045064568589079826,0.033299299015908376,0.03065132584964048,0.18317408081099967,0.071004373380587,0.22478462788826437
0.408,0.02136310103007627,0.031166958998575064,0.03196713800733895,0.01799059231079362,0.24257043954346447,0.036277851381700935,0.044843334313849015,0.03325471205778088,0.030697882544308552,0.1825745084202261,0.07089012288485493,0.2246293739685692
0.409,0.021456403812756868,0.031188697243650514,0.03217377827196172,0.017987753475534194,0.23771890196460543,0.036139316607878426,0.044624986528358626,0.033211419996511164,0.030742377356795327,0.18196725893232832,0.07079225773012396,0.22446190165159932
0.41,0.02155325637736172,0.031212565942478558,0.032385329308936416,0.018000662681953005,0.23289014910037073,0.03599990050407432,0.04440963689077707,0.0331695262220965,0.030784754402354262,0.1813518765114642,0.07071098196845363,0.2242826501303293
0.411,0.021653638957955162,0.0312386060554205,0.032601651731138985,0.01802992836699441,0.22808700472532695,0.03585964618779446,0.04419739280113516,0.03312912732862297,0.030824958853024324,0.18072794957451335,0.07064647684906643,0.22409208994979607
0.412,0.0217575271233711,0.03126685546336618,0.03282259807190652,0.018076154862838076,0.22331228540543818,0.03571859926269848,0.043988357264826056,0.033090313044156924,0.030862937046944112,0.1800951132231921,0.07059890101728167,0.22389072312564579
0.413,0.021864891680172673,0.03129734884023747,0.03304801301121495,0.018139941476946694,0.2185687973865878,0.03557680771726075,0.04378262876332154,0.03305316617652897,0.030898636598472855,0.17945305160149538,0.07056839074755905,0.22367908318944077
0.414,0.021975698580370868,0.03133011753091897,0.03327773361871601,0.018221881559250617,0.2138593335234424,0.0354343218200863,0.04358030113224136,0.033017762574752405,0.03093200650861959,0.17880150017149796,0.07055506020973118,0.22345773515776984
0.415,0.022089908834489382,0.03136518943496061,0.03351158961323689,0.018322561557426585,0.20918667025355298,0.03529119401205263,0.04338146344681417,0.032984171105723735,0.030962997275268196,0.1781402479002445,0.07055900176755077,0.22322727542193857
0.416,0.02220747843055165,0.031402588896371895,0.033749403638245495,0.01844256006130667,0.20455356462101354,0.03514747879558011,0.04318619991487074,0.03295245364588152,0.03099156100269753,0.17746913935004802,0.07058028630868204,0.2229883315546148
0.417,0.02232835825960244,0.03144233659975811,0.03399099155270754,0.018582446837503628,0.19996275135325323,0.03500323262140261,0.042994589777467465,0.032922665087340444,0.031017651510001878,0.1767880766641294,0.07061896360527155,0.22274156202940212
0.418,0.02245249404835529,0.03148444947306626,0.034236162736686435,0.01874278185540251,0.195416939994013,0.03485851377325034,0.04280670721732333,0.03289485335811513,0.03104122443806316,0.1760970214393448,0.0706750627042221,0.2224876558488794
0.419,0.022579826299503104,0.03152894059707544,0.03448472041093291,0.018924114305660423,0.19091881209492684,0.03471338225097663,0.04262262127531677,0.03286905945596594,0.03106223735482252,0.17539599647769735,0.0707485923463033,0.22222733207633344
0.42,0.02271029024019068,0.03157581912179358,0.034736461969674635,0.019126981612429872,0.186471018467733,0.03456789965266397,0.04244239577538131,0.032845317495544986,0.03108064985852397,0.17468508740835306,0.07083954141304505,0.2219613392662803
0.421,0.022843815779109527,0.0316250901898393,0.034991179325756835,0.019351908440470706,0.182076176498774,0.03442212905627942,0.04226608925816027,0.03282365476847266,0.03109642367863731,0.17396444417184714,0.07094787940032199,0.22169045478882665
0.422,0.0229803274726367,0.031676754866959346,0.03524865926727266,0.019599405698360238,0.1777368675273154,0.03427613490139157,0.04209375492390961,0.03280409181606153,0.031109522774096385,0.1732342823578948,0.07107355691735814,0.22141548404316327
0.423,0.023119744500435552,0.03173081007991254,0.03550868382475716,0.019869969539035935,0.17345563428904875,0.034129982871399886,0.04192544058499369,0.03278664251433327,0.031119913428432715,0.1724948843877821,0.07121650620986476,0.22113725955598765
0.424,0.023261980650824708,0.03178724856191865,0.03577103064799158,0.020164080358855228,0.16923497842601845,0.03398373977664411,0.04176118862836099,0.032771314171018515,0.03112756434143295,0.17174660053179203,0.07137664170588467,0.2208566399615667
0.425,0.02340694431627142,0.03184605880605162,0.03603547339140859,0.0204822017963818,0.16507735806404208,0.033837473438715474,0.041601035988206046,0.032758107634148735,0.03113244671686938,0.1709898497516255,0.07155386058289855,0.2205745088617621
0.426,0.02355453849921745,0.03190722502686793,0.036301782106999005,0.020824779732073216,0.1609851854583518,0.03369125257622773,0.04144501412908501,0.032747017411853,0.031134534345920284,0.1702251203575361,0.07174804335450595,0.22029177356638577
0.427,0.023704660828458804,0.03197072713059563,0.03656972364359895,0.021192241290085106,0.1569608247077996,0.03354514669228489,0.04129314903954288,0.032738031802887736,0.03113380368591804,0.16945297046981578,0.07195905447507317,0.22000936371674001
0.428,0.02385720358625669,0.03203654069425176,0.03683906205140201,0.021584993843534267,0.15300658953769206,0.033399225963828647,0.04114546123645256,0.03273113303747201,0.03113023393408222,0.16867402827462194,0.07218674296057397,0.2197282297975267
0.429,0.02401205374634508,0.03210463695395218,0.03710955899044646,0.022003424024726752,0.1491247411510121,0.03325356113304846,0.04100196578012546,0.03272629742788906,0.031123807096019973,0.1678889920646583,0.07243094302397673,0.21944934154412052
0.43,0.024169093022985363,0.03217498280272564,0.0373809741418218,0.022447896742030283,0.14531748614787485,0.033108223400937054,0.04086267230028802,0.03272349552836102,0.031114508048768454,0.16709863005605627,0.07269147472354466,0.21917368625318281
0.431,0.02432819793121037,0.03224754079806139,0.03765306562027937,0.022918754205249532,0.14158697451325916,0.03296328432309343,0.040727585032978124,0.032722692303651796,0.03110232459830409,0.1663037799738521,0.07296814462243728,0.21890226700504875
0.432,0.024489239858304177,0.03232226917937712,0.0379255903869141,0.023416314961437836,0.13793529767347032,0.03281881570775039,0.04059670286837673,0.03272384730581846,0.031087247531401317,0.16550534839940922,0.07326074645804337,0.21863610080617152
0.433,0.024652085146506016,0.03239912189555735,0.03819830466065428,0.02394087294320228,0.13436448662233186,0.032674889516080274,0.04047001940943612,0.032726914858587294,0.031069270661736675,0.1647043098737943,0.07356906181935079,0.21837621665959053
0.434,0.024816595186874783,0.0324780486426087,0.03847096432736302,0.024492696531510687,0.13087651011852988,0.03253157776466165,0.04034752304111406,0.032731844248736215,0.031048390870117,0.16390170575186508,0.07389286083062936,0.2181236535708988
0.435,0.024982626524144638,0.03255899491145676,0.03874332534547911,0.025072027635169362,0.12747327295613772,0.03238895243011065,0.04022919700989425,0.03273857992391741,0.031024608138681506,0.16309864280272254,0.07423190283955686,0.21787945849685542
0.436,0.02515003097240421,0.03264190204582334,0.03901514414709324,0.025679080789018486,0.12415661431076476,0.03224708535575765,0.04011501951314032,0.032747061696244244,0.030997925578904337,0.16229629155324465,0.0745859371079544,0.21764468424344308
0.437,0.025318655741339288,0.03272670731012017,0.039286178033472056,0.026314042273000552,0.12092830616428027,0.03210604816040779,0.04000496379780397,0.03275722495095479,0.03096834945324363,0.16149588437283685,0.07495470350317311,0.21742038731989757
0.438,0.025488343572809977,0.03281334396718014,0.03955618556397819,0.02697706925419505,0.11779005181143591,0.03196591214923148,0.03989899826791528,0.03276900085946256,0.030935889190342625,0.16069871329908894,0.07533793318822672,0.2172076257549165
0.439,0.0256589328874001,0.032901741365675835,0.03982492693734258,0.02766828895392846,0.11474348445174791,0.0318267482270142,0.03979708660026375,0.03278231659602219,0.03090055739372319,0.15990612760621112,0.0757353493086349,0.2170074568810058
0.44,0.02583025794068663,0.032991825037001904,0.04009216436431457,0.028387797841983513,0.11179016587000921,0.03168862681396962,0.039699187867736796,0.0327970955573282,0.030862369843967872,0.15911953112057997,0.07614666767387401,0.21682093509280756
0.441,0.026002148988801623,0.03308351680141912,0.04035766243071899,0.029135660859993563,0.10893158520847827,0.031551617764406896,0.039605256669734024,0.0328132575843633,0.030821345494463633,0.1583403792900583,0.07657159743130153,0.21664910958515368
0.442,0.026174432463022698,0.0331767348832078,0.04062118845008658,0.029911910675917138,0.10616915783364869,0.03141579028851995,0.039515243269164085,0.03283071918587784,0.030777506460805563,0.15757017601587026,0.07700984173047005,0.2164930220766966
0.443,0.02634693115297622,0.033271394034609034,0.040882512805002325,0.03071654697156092,0.10350422430024422,0.031281212877564274,0.03942909373553916,0.03284939376297865,0.03073087800403386,0.15681047025773343,0.07746109837601123,0.21635370452496003
0.444,0.02651946439816419,0.033367405668295866,0.04114140927642666,0.03154953576501351,0.10093804941488477,0.031147953232617927,0.03934675009362545,0.03286919183439382,0.030681488507917815,0.15606285242473564,0.07792506046770863,0.2162321768385396
0.445,0.026691848287497065,0.033464677998125664,0.04139765536025953,0.03241080876983116,0.09847182140158814,0.03101607819715575,0.03926815047715696,0.032890021262087996,0.030629369450581558,0.15532895056609597,0.07840141702684653,0.21612944459203984
0.446,0.026863895866528324,0.03356311618798719,0.04165103257047497,0.033300262792839694,0.0961066511709605,0.030885653693517826,0.03919322928705208,0.03291178747697406,0.03057455537072761,0.154610426377405,0.0788898536083495,0.21604649674908677
0.447,0.027035417352132562,0.03366262250854769,0.041901326728227675,0.03421775917237842,0.0938435716947237,0.030756744663331722,0.03912191735364167,0.03293439370455725,0.03051708382875489,0.15390897103892465,0.07939005289836987,0.21598430339828234
0.448,0.0272062203543345,0.03376309650183444,0.04214832823635337,0.03516312325885798,0.09168353748698774,0.030629415011915656,0.03905414210249489,0.032957741190330986,0.03045699536307739,0.1532263009030402,0.07990169529707462,0.21594381350639386
0.449,0.0273761101049942,0.033864435153554695,0.04239183233872402,0.03613614393949257,0.08962742419356602,0.030503727556654724,0.03898982772340338,0.03298172942480472,0.030394333441942,0.15256415304793927,0.08042445948631015,0.21592595269248963
0.45,0.027544889693042217,0.033966533073067164,0.04263163936392993,0.03713657320897448,0.08767602829039685,0.03037974397935028,0.038928895342127234,0.033006256368117846,0.030329144411051754,0.15192428071431893,0.08095802298182711,0.21593162102628075
0.451,0.02771236030594702,0.03406928268093382,0.0428675549528499,0.03816412578790907,0.08583006689192593,0.030257524782638774,0.03887126319439241,0.03303121867415279,0.030261477437373827,0.15130844864163084,0.0815020626697764,0.2159616908539518
0.452,0.027878321477168067,0.03417257440384796,0.043099390269635496,0.03921847879064517,0.08409017767012618,0.030137129250505025,0.03881684680164439,0.033056511914157,0.030191384449384677,0.15071842832002927,0.08205625532707572,0.2160170046550986
0.453,0.028042571339328838,0.03427629687679972,0.043326962195795474,0.04029927144415725,0.0824569188845014,0.030018615413070965,0.03876555914790174,0.03308203079981222,0.030118920074079587,0.15015599317391712,0.08262027812530198,0.216098372934921
0.454,0.02820490688293257,0.03438033715220766,0.04355009350699343,0.04140610485955093,0.08093076952336051,0.029902040015663787,0.038717310857083256,0.03310766940568561,0.030044141570893163,0.1496229136926028,0.08319380911758391,0.21620657215628447
0.455,0.028365124220408922,0.034484580915729285,0.04376861303220607,0.04253854185771315,0.07951212955630697,0.029787458492282825,0.03867201037016962,0.03313332139097776,0.02996710876276751,0.14912095252330584,0.08377652770788598,0.2163423427166544
0.456,0.02852301885535091,0.03458891270838278,0.043982355794912865,0.04369610685057276,0.07820132029778702,0.0296749249434748,0.03862956412162542,0.03315888022040614,0.02988788396441631,0.14865185954137133,0.08436811510181538,0.2165063869750273
0.457,0.028678385956822736,0.03469321615453892,0.04419116313604354,0.044878285779412004,0.07699858488127317,0.029564492118677187,0.03858987671463296,0.03318423938403885,0.029806531907908045,0.14821736691223017,0.08496825473793114,0.21669936733395234
0.458,0.02883102063860182,0.0347973741953035,0.04439488281848326,0.04608452611166186,0.07590408884352828,0.029456211403075864,0.038552851094704396,0.033209292615826426,0.02972311966558573,0.1478191841592405,0.08557663269834015,0.21692190438147288
0.459,0.028980718243341412,0.03490126932671648,0.0445933691130851,0.047314236897523454,0.07491792081819723,0.029350132809084932,0.038518388721298674,0.03323393411059691,0.029637716570405908,0.1474589932511528,0.08619293809736304,0.21717457509750943
0.46,0.029127274631497998,0.035004783842138065,0.044786482866244225,0.04856678888783703,0.07404009333783054,0.029246304972525727,0.03848638973703302,0.03325805873930591,0.029550394133787457,0.14713844372241885,0.08681686344704695,0.2174579111288365
0.461,0.02927048647490388,0.035107800078161056,0.044974091549237476,0.04984151471446358,0.07327054374329242,0.029144775153668742,0.038456753134021006,0.03328156226233963,0.029461225961110827,0.14685914783917914,0.08744810499846749,0.21777239713658
0.462,0.02941015155472699,0.035210200663271476,0.04515606928973492,0.05113770913451984,0.07260913519929917,0.029045589243236657,0.03842937691682866,0.03330434154067635,0.029370287665091043,0.14662267582324717,0.08808636305785389,0.21811846922006453
0.463,0.029546069063579112,0.03531186876851217,0.04533229688609389,0.05245462933966042,0.07205565781471913,0.02894879177351291,0.038404158261505714,0.03332629474475411,0.029277656777209442,0.14643055114598053,0.08873134227672759,0.2184965134209477
0.464,0.029678039911416182,0.03541268835928643,0.045502661805201974,0.053791495331555104,0.0716098298660794,0.028854425934661795,0.03838099367010818,0.03334732156074031,0.029183412657412075,0.1462842459035328,0.08938275191530569,0.21890686431166265
0.465,0.029805867034936002,0.03551254444755855,0.04566705816487048,0.05514749036457618,0.07127129912260038,0.028762533596290833,0.038359779120188675,0.03336732339399922,0.02908763640226162,0.14618517628460473,0.09004030607839861,0.2193498036723037
0.466,0.029929355710080544,0.03561132334359772,0.04582538670187021,0.056521761456597173,0.07103964427092449,0.028673155334266974,0.038340410208797866,0.03338620356930661,0.028990410751614036,0.14613469814142913,0.09070372392308376,0.2198255592597087
0.467,0.03004831386736546,0.03570891290651452,0.04597755472674026,0.05791341996866748,0.07091437643756882,0.028586330462703907,0.03832278229064079,0.03340386752746675,0.028891819993937515,0.1461341026743975,0.09137272983751378,0.2203343036721738
0.468,0.030162552409661234,0.03580520279278866,0.046123476066596523,0.059321542254219733,0.07089494080698146,0.028502097070991318,0.03830679061020711,0.03342022301777533,0.028791949870265884,0.1461846122403931,0.09204705359026616,0.22087615331257004
0.469,0.030271885532158357,0.03590008470207545,0.04626307099698941,0.06074517037828363,0.07098071833290001,0.02842049206566202,0.03829233042782701,0.033435180285827384,0.028690887476817438,0.14628737629449606,0.09272643044970481,0.22145116745231186
0.47,0.030376131044200592,0.035993452619632264,0.04639626616390501,0.062183312907081734,0.07117102754058355,0.028341551216896663,0.03827929713975105,0.03344865225610997,0.028588721166246337,0.14644346747440776,0.09341060127280444,0.2220593473981686
0.471,0.030475110692682054,0.03608520305479505,0.046522994496760596,0.06363494576820378,0.0714651264173452,0.02826530920931164,0.03826758639240418,0.03346055470881131,0.02848554044751701,0.14665387783642955,0.09409931256303354,0.22270063576358082
0.472,0.030568650486601793,0.03617523527507524,0.04664319511326898,0.06509901318136897,0.07186221438875084,0.02819179969672398,0.038257094190998785,0.033470806450370795,0.028381435884370712,0.14691951525153632,0.0947923164968277,0.22337491584579555
0.473,0.030656581022348292,0.0362634515355865,0.046756813216994236,0.06657442865963784,0.0723614343776755,0.028121055360482993,0.03824771700265892,0.03347932947723821,0.02827649899242853,0.1472411999696095,0.09548937091836282,0.22408201110984843
0.474,0.030738737809191907,0.03634975730353334,0.04686379998841881,0.06806007608075171,0.07296187494337539,0.02805310797093728,0.038239351854188634,0.033486049132459075,0.02817082213496364,0.1476196613595704,0.09619023930254116,0.22482168478021883
0.475,0.030814961594430722,0.03643406147763469,0.0469641124704489,0.06955481082817255,0.07366257249754565,0.027987988451634634,0.038231896424663396,0.03349089425480472,0.028064498417433227,0.14805553483276693,0.09689469068651792,0.22559363954109843
0.476,0.030885098687592663,0.03651627660228585,0.047057713449203106,0.07105746100123374,0.07446251359423076,0.027925726945769405,0.038225249132995055,0.0334937973202181,0.027957621580837574,0.14854935895656185,0.0976024995707736,0.22639751734632407
0.477,0.030949001283069936,0.03659631907630491,0.047144571331032205,0.07256682869377185,0.07536063729023422,0.027866352884488414,0.038219309220676165,0.03349469457554828,0.027850285894069973,0.14910157276470787,0.0983134457913074,0.2272328993404177
0.478,0.031006527780534837,0.036674109356047695,0.04722466001671937,0.07408169134035567,0.07635583757243228,0.027809895056610433,0.03821397682993107,0.03349352616461213,0.02774258604533832,0.14971251327067575,0.09902731436523193,0.22809930589242652
0.479,0.03105754310246094,0.03674957215263539,0.04729795877386423,0.07560080312920343,0.07744696584820511,0.027756381679264353,0.03820915307743936,0.03349023624659288,0.027634617032787495,0.1503824131897539,0.09974389531235812,0.22899619674434427
0.48,0.03110191900802551,0.03682263662301147,0.047364452108463934,0.07712289648052277,0.07863283349489862,0.027705840468962586,0.03820474012379347,0.033484773106919906,0.0275264740544419,0.15111139887530425,0.10046298345566403,0.22992297127569325
0.481,0.03113953440264782,0.03689323655451993,0.04742412963674255,0.07864668358889451,0.07991221446405904,0.02765829871253388,0.03820064123877891,0.03347708926066459,0.02741825239756636,0.15189948847409498,0.10118437820359125,0.23087896888565382
0.482,0.031170275642396893,0.03696131054271403,0.04747698595823618,0.08017085802800179,0.08128384793593146,0.027613783337357044,0.03819676086250627,0.03346714154855792,0.02731004732759562,0.1527465903052011,0.10190788331700908,0.2318634694935748
0.483,0.03119403683256181,0.03702680216214698,0.047523020531108316,0.08169409641579005,0.08274644101948854,0.027572320980352446,0.038193004662490995,0.03345489122566858,0.027201953976726825,0.1536525014665333,0.10263330666346973,0.23287569415824083
0.484,0.03121072011971444,0.0370896601299213,0.04756223755053696,0.08321506013790274,0.0842986714930766,0.027533938055222883,0.03818927958676196,0.03344030404276257,0.02709406723229051,0.15461690667253616,0.10336045996104631,0.23391480581568075
