time,RGLTMED,RRF,RADDLONG,RST,RTA,RGM,LGLTMED,LRF,LADDLONG,LST,LTA,LGM
0.0,0.015819584444887753,0.16965854618651224,0.18300884902248937,0.007581558097088408,0.007112815862161983,0.03184495015455289,0.004138146704258143,0.012694590147475303,0.016366592366077952,0.12843108811334816,0.08332489742420028,0.010975884515698893
0.001,0.018198442197736708,0.1816904264459648,0.17139789867721442,0.006828382813309375,0.005777940004226467,0.03303935076683917,0.004624999877016573,0.011190784501440005,0.01483882256114695,0.12183243641996977,0.08838516875394822,0.014693035081407518
0.002,0.020582865394432426,0.19365783552440063,0.15988677865430895,0.0060756319487714995,0.004441739936005372,0.03423443052318469,0.005109174489896878,0.00969832155038135,0.013319590205279348,0.11524464699363572,0.0934941093872141,0.01840164207204719
0.003,0.022971250216333245,0.20555152363088164,0.1484822644378005,0.005323395909240144,0.003104944554728671,0.03542942548637306,0.00559029727660218,0.008218193984136684,0.011809830511080142,0.10867025056724075,0.09864886258210426,0.022099317686276133
0.004,0.02536198126648908,0.21736230855029953,0.13719099004564872,0.004571746385961557,0.0017682761702754516,0.03662357610894674,0.006067997028400378,0.006751381716262862,0.01031046534721072,0.10211172616061988,0.10384651610893537,0.025783680072161017
0.005,0.027753433744833952,0.2290810913279535,0.1260194387617871,0.0038207357131690425,0.0004324491284599921,0.03781612881252396,0.006541905192339659,0.0052988504898595626,0.008822401821538886,0.09557149835209895,0.10908410640810778,0.02945235661549952
0.006,0.03014397563076754,0.24069887182722627,0.11497393419923829,0.003070396259644198,0.0009018315170002147,0.03900633757153982,0.007011656469307499,0.0038615505102271674,0.007346530900443579,0.08905193473527452,0.11435862280102203,0.03310298722594214
0.007,0.03253196986681587,0.252206764107714,0.10406063171597857,0.002320739856754542,0.0022338712763737985,0.040193465496524486,0.007476889410529073,0.0024404151076901645,0.005883726068862652,0.08255534356755459,0.11966701173823902,0.036733227614426434
0.008,0.03491577653720266,0.26359601157220414,0.09328551020380033,0.0015717572652899786,0.0035629874346248956,0.04137678641210288,0.007937247011165067,0.001036359433678369,0.0044348420354210286,0.07608397161629603,0.125006181072863,0.04034075255573975
0.009,0.03729375503534103,0.27485800183201636,0.08265436426904603,0.0008234176833312631,0.004888510197585329,0.042555586424880915,0.0083923772997765,0.00034972080711445625,0.0030007134867048152,0.06964000220767609,0.13037300435013172,0.043923259130208496
0.01,0.039664266214369366,0.28598428124212927,0.07217279682270504,7.566829731747613e-05,0.006209783771283057,0.043729165476463605,0.00884193392247306,0.0017169505858598856,0.0015821538943047114,0.06322555348279922,0.13576432510622874,0.047478469938738534
0.011,0.04202567451509004,0.2969665690603197,0.06184621209588034,0.0006715661216723585,0.007526167372827435,0.04489683887700581,0.009285576720650572,0.0030644767376205345,0.0001799543778023262,0.05684267686488193,0.14117696117037903,0.05100413628563293
0.012,0.044376350065918245,0.30779677118780635,0.051679809095290255,0.0014183835745127224,0.008837036171815176,0.04605793881494426,0.009722972301240617,0.004391469106118412,0.00120511737367796,0.05049335574076227,0.146607708964872,0.05449804132370189
0.013,0.04671467074981908,0.31846699345217644,0.04167857551211441,0.002164905141753383,0.01014178216165804,0.04721181583879949,0.010153794598523539,0.005697121643424526,0.0025723181191776804,0.044179504359489516,0.15205334779801838,0.057958003156317085
0.014,0.049039024233619555,0.32896955439660014,0.03184728209599337,0.0029112752408710606,0.011439814960527936,0.04835784030717676,0.010577725426532186,0.006980653462997288,0.00392093002113131,0.037902966950345035,0.1575106441453722,0.0613818778911165
0.015,0.05134780995556026,0.33929699754230264,0.022190477504237367,0.003657661831608188,0.01273056254181078,0.049495403803241377,0.01099445502118893,0.008241309844763501,0.005250261536701117,0.031665517062187475,0.16297635591450868,0.06476756264024783
0.016,0.053639441067530914,0.349442103093764,0.01271248363440278,0.004404256568130319,0.014013471894082126,0.05062392051006821,0.011403682571298908,0.009478363191017514,0.00655964824417582,0.02546885712540229,0.16844723668847217,0.06811299846210875
0.017,0.05591234632916839,0.35939789905837694,0.0034173914463863308,0.005151274896947495,0.015288009610813258,0.05174282854331252,0.011805116737605119,0.010691113932064792,0.007848453603721455,0.019314618236726522,0.17392003994269392,0.07141617323969902
0.018,0.05816497195179376,0.3691576717542562,0.005690942721934387,0.005898956099696089,0.01655366241020547,0.05285159123766147,0.012198476159106521,0.011878891380618806,0.00911606965211087,0.013204360165845416,0.17939152322988344,0.07467512449082998
0.019,0.06039578339093524,0.3787149756817896,0.014608900343617549,0.006647563280154057,0.017809937585756816,0.05394969838353658,0.012583489945913224,0.013041054534179568,0.010361917631349282,0.007139571580830176,0.18485845232716264,0.07788794210555067
0.02,0.06260326708670788,0.38806364273610783,0.023333103396170087,0.007397383294965786,0.019056363388327467,0.05503666741064216,0.012959898157919307,0.014176992824812475,0.011585448551275178,0.0011216704876695915,0.1903176053394342,0.08105277100630992
0.021,0.06478593215167393,0.39719779073889655,0.03186041656147952,0.008148726627762441,0.02029248934066331,0.05611204451506132,0.013327452268626007,0.015286126815969825,0.012786143686369194,0.004847995122505398,0.1957657767527955,0.08416781372640321
0.022,0.06694231200596432,0.4061118312685181,0.0401879489356358,0.008901927206528949,0.02151788648545588,0.05717540572682747,0.013685915613440352,0.016367908846177944,0.013963515007126281,0.01076814642614319,0.2011997814314787,0.08723133290230238
0.023,0.0690709659594168,0.4148004767674609,0.04831305525359555,0.00965734216422519,0.022732147568131886,0.058226357915016166,0.014035063821807008,0.017421823619514866,0.015117105546457451,0.01663757272837672,0.20661645855163174,0.09024165367540968
0.024,0.07117048074040037,0.42325874690667636,0.05623333663492568,0.010415351542874452,0.023934887155644912,0.05926453972753721,0.014374685232524484,0.01844738874292969,0.016246489701789383,0.022455130241635823,0.21201267546503302,0.0931971659987584
0.025,0.07323947197084445,0.431481974188111,0.06394664085801216,0.011176357941495128,0.025125741692574595,0.060289622462866586,0.014704581291565443,0.019444155210581824,0.017351273473666207,0.02821974069140755,0.21738533148569447,0.09609632684414343
0.026,0.07527658558681222,0.43946580877008323,0.07145106217140192,0.011940786108458189,0.026304369495854664,0.061301310870960114,0.01502456693181309,0.02041170783547618,0.018431094641847754,0.03393038975936543,0.22273136159200804,0.09893766230508158
0.027,0.07728049920379298,0.4472062225047536,0.07874494065223706,0.012709082478932272,0.027470450689435152,0.06229934388053607,0.015334470934099695,0.02134966562883985,0.019485622880006326,0.03958612537464856,0.22804774003681025,0.1017197695909307
0.028,0.07924992342575757,0.45469951218257937,0.08582686112301448,0.013481714658218407,0.028623687080169886,0.06328349524986757,0.015634136269058147,0.02225768212774565,0.020514559810321752,0.04518605586442114,0.23333148385736271,0.10444131890736164
0.029,0.0811836030969168,0.46194230198467157,0.092695651638939,0.014259170851763417,0.029763801976210407,0.06425357413810491,0.015923420419313824,0.023135445671548762,0.02151763899935274,0.05072934797509214,0.23857965627700414,0.10710105521812252
0.03,0.08308031849499117,0.4689315451496848,0.09935038155895534,0.015041959242723519,0.030890539949245392,0.06520942559409547,0.016202195681576607,0.0239826796277504,0.02249462589676253,0.056215224775667996,0.2437893699901454,0.10969779988276405
0.031,0.08493888646473288,0.47566452486645705,0.10579035921397655,0.01583060731795957,0.03200366654191683,0.06615093095963473,0.016470349448207067,0.024799142567903738,0.02344531771857791,0.06164296345480505,0.24895779032238857,0.11223045216462287
0.032,0.08675816149039983,0.48213885440690385,0.11201512918607155,0.016625661143460455,0.03310296792188214,0.06707800818415381,0.01672778446780143,0.025584628394218444,0.024369543276785616,0.06701189302311819,0.2540821382579183,0.11469799060299762
0.033,0.0885370367059715,0.4883524765160031,0.11802446921256296,0.01742768459028583,0.03418825048398957,0.0679906120479338,0.016974419084353005,0.026338966417558257,0.025267162757128907,0.07232139193230602,0.25915969332669114,0.11709947424318312
0.034,0.09027444484201602,0.4943036620772686,0.1238183867293039,0.01823725851226808,0.035259340402124105,0.06888873429112387,0.017210187454545632,0.02706202138760758,0.02613806744707668,0.07757088562252938,0.2641877963442139,0.11943404371773701
0.035,0.09196935910835936,0.4999910080736089,0.12939711506774956,0.01905497987678432,0.03631608313226598,0.06977240364614778,0.01743503974276501,0.027753693476033056,0.026982179415949718,0.08275984400940677,0.2691638519968779,0.12170092217235376
0.036,0.09362079401194606,0.5054134348648902,0.13476110932092336,0.019881460850008897,0.037358342868312744,0.07064168577165643,0.017648942293451965,0.028413918213529062,0.027799451149193848,0.08788777892187032,0.27408533126583234,0.12389941602995953
0.037,0.09522780610944684,0.5105701828048546,0.13991104189386058,0.020717327838075644,0.038386001952223185,0.07149668308701794,0.01785187778048461,0.02904266638167962,0.02858986513880294,0.09295424150195748,0.27894977368240104,0.12602891558731044
0.038,0.09678949469431236,0.5154608082208041,0.1448477977545498,0.021563220485687536,0.03939896024013399,0.07233753450720963,0.01804384533331665,0.02963994386057454,0.02935343343185343,0.09795881957747277,0.2837547894079642,0.12808889543944976
0.039,0.09830500241799342,0.5200851787795862,0.1495724694016423,0.022419790633710544,0.0403971344262901,0.07316441507900276,0.018224860639682722,0.030205791433148225,0.030090197139076045,0.10290113501822269,0.28849806113122883,0.13007891472871982
0.04,0.09977351584514418,0.5244434682631123,0.1540863515653652,0.023287701237389415,0.04138045732686128,0.0739775355204399,0.01839495602472075,0.03074028454716689,0.030800225905459035,0.10778084108633017,0.29317734577613963,0.1319986172162932
0.041,0.10119426594275319,0.5285361507765213,0.15839093565813106,0.024167625246880715,0.04234887712605417,0.07477714166668034,0.018554180506471247,0.03124353303580882,0.03148361734489661,0.11259761979085571,0.297790476014636,0.13384773117546053
0.042,0.10256652850350687,0.532363994412339,0.162487903991303,0.02506024445182896,0.04330235658722605,0.07556351382622505,0.01870259982778162,0.0317156807977286,0.032140496440951884,0.11735117925673137,0.3023353615801735,0.13562606910714758
0.043,0.10388962450406669,0.5359280543948891,0.16637912377445283,0.02596624829183228,0.04424087223198875,0.07633696605226897,0.018840296464766697,0.03215690543753358,0.03277101491588716,0.12204125111769724,0.3068099903804043,0.1373335272795749
0.044,0.10516292039930282,0.5392296657308293,0.1700666409132021,0.026886332634646144,0.04516441349047075,0.07709784533441154,0.018967369612080814,0.032567417867588655,0.033375350570107966,0.12666758794265062,0.3112124294104627,0.1389700850953973
0.045,0.10638582835386431,0.542270435393679,0.17355267362151533,0.027821198524118355,0.04607298182593479,0.07784653071627978,0.01908393514536006,0.03294746187206877,0.03395370659416609,0.13122996070442486,0.31554082547147644,0.14053580429077395
0.046,0.10755780641258383,0.5450522340720557,0.1768396058640965,0.02877155089989189,0.04696658983695252,0.07858343234468919,0.01919012556120208,0.03329731363420683,0.03450631085550718,0.13572815629964896,0.3197934057017896,0.14203082797182162
0.047,0.1086783586113578,0.5475771875127019,0.17992998064443308,0.02973809729103175,0.04784526034031173,0.07930899045592939,0.019286089895065923,0.033617281227669465,0.035033415162079785,0.14016197512788897,0.32396847793055716,0.14345537949467707
0.048,0.10974703503021106,0.5498476674899968,0.1828264931539021,0.03072154648580151,0.048709025437746044,0.08002367430467808,0.019371993617469063,0.03390770407304089,0.03553529450495465,0.14453122873783603,0.32806443086467585,0.1448097611962917
0.049,0.11076343179052904,0.5518662824335466,0.18553198379724167,0.03172260717982291,0.049557925569601445,0.08072798104084675,0.01944801850882395,0.034168952360363665,0.036012246282046016,0.14883573754780643,0.3320797341204641,0.1460943529837388
0.05,0.11172719099880203,0.5536358677449514,0.18804943110945954,0.032741986604872465,0.050392008558447055,0.08142243453947662,0.01951436251331396,0.03440142643880785,0.03646458950498584,0.15307532864737708,0.3360129381113379,0.14730961079049115
0.051,0.11263800063971302,0.5551594758343203,0.19038194457902832,0.03378038914048529,0.051211328645701125,0.082107584188631,0.019571239572182687,0.034605556174539066,0.03689266399113208,0.1572498336864383,0.3398626738021821,0.148456064908522
0.052,0.11349559442171066,0.5564403659067169,0.19253275739196576,0.03483851491046479,0.052015945524338206,0.08278400364002327,0.01961887943690596,0.034781800277941796,0.03729682954258783,0.161359086857505,0.34362765234046294,0.1495343182052373
0.053,0.11429975157842576,0.5574819935282955,0.19450521911116972,0.035917058366321766,0.052805923370831176,0.0834522895269907,0.01965752746272593,0.034930645601413936,0.037677465114044184,0.16540292297660003,0.3473066645733713,0.15054504423410714
0.054,0.11505029662921859,0.5582880000015104,0.1963027883051801,0.037016706859605654,0.05358132987952334,0.0841130601542067,0.019687444383120995,0.03505260640896736,0.038034967971182235,0.16938117566756125,0.3508985804594328,0.15148898524764012
0.055,0.1157470991019358,0.5588622015788357,0.1979290251405046,0.03813813920501438,0.05434223530272886,0.08476695416328099,0.019708906065773454,0.0351482236189253,0.038369752841285173,0.17329367565411938,0.3544023483820866,0.15236695012095655
0.056,0.1163900732206333,0.5592085785448717,0.19938758395187328,0.039282024236201286,0.05508871149986749,0.0854146291781522,0.019722203250619567,0.035218064021042675,0.03868225105766655,0.17714024916371657,0.3578169943718135,0.153179812193894
0.057,0.11697917756071641,0.5593312641975072,0.2006822058051423,0.040449019356138274,0.05582083099896906,0.08605676043388007,0.01972764127053515,0.0352627194694077,0.03897290969946685,0.18092071644667163,0.3611416212425254,0.15392850703920374
0.058,0.11751441467359516,0.5592345337597602,0.20181671106798615,0.04163976908395683,0.05653866607384583,0.08669403939221185,0.019725539755180602,0.035282806052573425,0.039242190728358106,0.18463489041404482,0.36437540764719023,0.15461403016404432
0.059,0.1179958306826976,0.5589227932550598,0.20279499200373122,0.042854903600184874,0.05724228784009423,0.08732717234706744,0.01971623231847477,0.03527896324246464,0.03949057012370422,0.18828257539734772,0.3675176070568974,0.15523743465166054
0.06,0.11842351485246178,0.5584005683796771,0.2036210054037384,0.04409503729233909,0.05793176537303978,0.0879568790229413,0.019700066230158506,0.035251853023694664,0.03971853701770614,0.19186356603298887,0.37056754666673947,0.15579982874978543
0.061,0.11879759913170465,0.5576724934065537,0.2042987652736481,0.04536076730288633,0.05860716485051231,0.08858389116905152,0.01967740207192605,0.035202159004984065,0.03992659283210536,0.19537764627408005,0.3735246262311781,0.1563023734120937
0.062,0.11911825767261947,0.5567433001543951,0.2048323355884965,0.04665267208164343,0.05926854872326667,0.08920895115202754,0.01964861337859702,0.035130585514435424,0.040115250417969595,0.19882458853183577,0.37638831683120405,0.15674627979882855
0.063,0.11938570632644732,0.5556178070550027,0.20522582313133853,0.04797130994478569,0.05991597491574601,0.08983281054977875,0.019614086264858253,0.035037856680353974,0.040285033200053715,0.2022041529485417,0.3791581595757058,0.15713280674249208
0.064,0.11960020211677345,0.5543009083502536,0.20548337042946097,0.049317217642719055,0.06054949605978186,0.09045622874909008,0.01957421903811995,0.034924715499332466,0.04043647432713796,0.205516086803884,0.3818337642400631,0.15746325818438403
0.065,0.11976204269120763,0.5527975634484802,0.20560914880169143,0.05069090893923187,0.06116915876377838,0.09107997154930207,0.019529421798039313,0.03479192289320629,0.040570115829655064,0.2087601240563992,0.3844148078456727,0.15773898058761404
0.066,0.1198715657520865,0.5511127864681864,0.2056073515296722,0.05209287320449324,0.06177500291986191,0.09170480977424082,0.019480116023276813,0.03464025675646143,0.04068650778583122,0.21193598502190933,0.38690103318473185,0.1579613603321932
0.067,0.11992914846667625,0.5492516359951304,0.2054821871652579,0.053523574024635465,0.06236706105131599,0.09233151789435373,0.0194267341459893,0.03447051099561324,0.040786207497401465,0.2150433761908901,0.3892922472948228,0.15813182109770707
0.068,0.11993520685709386,0.5472192050770184,0.20523787298545296,0.05498344783070496,0.06294535770252657,0.09296087266089542,0.019369719114570798,0.034283494561995136,0.04086977867590369,0.21808199018678873,0.39158831988754145,0.15825182123899298
0.069,0.1198901951699199,0.5450206114781906,0.2048786286055984,0.056472902549849616,0.06350990887352075,0.09359365175388402,0.019309523945108216,0.034080030479347,0.04093779064041748,0.22105150586713943,0.39378918173484484,0.15832285116007316
0.07,0.1197946052250791,0.5426609882150196,0.2044086697607428,0.057992316281655076,0.06406072150102471,0.09423063244539955,0.019246611261972673,0.03386095486748149,0.040990817527542106,0.22395158856896077,0.39589482301643364,0.1583464306914918
0.071,0.11964896574330587,0.540145474391147,0.2038322022644984,0.05954203600260451,0.06459779298786662,0.09487259027975216,0.01918145282798428,0.03362711596327251,0.04102943751434304,0.22678189049933248,0.39790529163142063,0.15832410647616002
0.072,0.11945384165129415,0.5374792063501442,0.20315341615399715,0.06112237630175705,0.06512111078245711,0.09552029777190711,0.019114529064506926,0.033379373140057025,0.04105423205487872,0.2295420512714576,0.3998206914777449,0.15825744936873604
0.073,0.119209833363597,0.5346673091616166,0.20237648002887323,0.06273361815075505,0.06563065200992801,0.09617452312553568,0.019046328561845786,0.03311859592651194,0.04106578513084228,0.23223169858586148,0.4016411807031645,0.1581480518535452
0.074,0.11891757604042899,0.5317148884551497,0.20150553559156145,0.06437600771135654,0.06612638315644384,0.09683602897199078,0.018977347580252983,0.03284566302595261,0.041064682516680225,0.23485044905568409,0.40336696993187837,0.1579975254859071
0.075,0.11857773882070233,0.528627022614863,0.20054469239552752,0.0660497551837249,0.06660825980803972,0.09750557113145282,0.018908089541881487,0.032561461336951904,0.04105151105948028,0.23739790917430184,0.40499832047076284,0.1578074983615231
0.076,0.11819102402994112,0.5254087553458594,0.19949802280739698,0.06775503369865554,0.06707622644520422,0.09818389739747253,0.018839064513978585,0.03226688497609242,0.04102685797374042,0.23987367642273813,0.40653554249870416,0.15757961261823134
0.077,0.11775816636293028,0.5220650886224683,0.1983695571883288,0.0694919782568294,0.0675302162942981,0.09887174634609337,0.01877078868365902,0.031962834303586866,0.04099131015113209,0.24227734051352653,0.40797899324175835,0.15731552197400947
0.078,0.11727993204117108,0.5186009760268919,0.1971632792993177,0.07126068471806117,0.06797015123678715,0.09956984617067062,0.01870378382460996,0.03165021495243468,0.0409454534852804,0.24460848476683153,0.40932907513610206,0.1570168893047015
0.079,0.11675711794543972,0.5150213164855378,0.19588312193446525,0.07306120884342009,0.06839594177707929,0.10027891354338599,0.018638576756145084,0.031329936861735595,0.04088987221164614,0.24686668761378636,0.4105862339803317,0.15668538426461878
0.08,0.11619055072407176,0.5113309484087988,0.19453296278562937,0.07489356539310633,0.06880748706961766,0.10099965250439105,0.018575698794974047,0.031002913314724097,0.04082514826260302,0.24905152422110405,0.41175095707846426,0.15632268095294058
0.081,0.11558108587793549,0.5075346442384576,0.1931166205411805,0.07675772728297414,0.06920467500571371,0.10173275337935803,0.018515685200091576,0.030670059982100914,0.04075186063797637,0.25116256823028893,0.41282377137520804,0.15593045562867172
0.082,0.11492960682346959,0.503637105405184,0.19163785122100388,0.07865362480262357,0.06958738236039178,0.10247889172615261,0.018459074611129667,0.03033229397122533,0.04067058479139225,0.25319939360411137,0.4138052415856671,0.15551038447681884
0.083,0.11423702393532684,0.4996429576969504,0.19010034474931917,0.08058114489792821,0.06995547499936791,0.10323872731122244,0.018406408480476037,0.02999053288173472,0.04058189203289658,0.2551615765725663,0.4146959683227031,0.1550641414282931
0.084,0.11350427357023907,0.49555674703773134,0.1885077217664191,0.08254013052074478,0.07030880814603489,0.10401290311615541,0.018358230499442508,0.029645693868172732,0.04048634894842248,0.25704869767009164,0.41549658622640834,0.15459339603603614
0.085,0.11273231707365933,0.49138293567448366,0.18686353067994027,0.08453038004833491,0.07064722670818373,0.10480204437470567,0.01831508601874197,0.02929869271016609,0.04038451683665682,0.2588603438554247,0.41620776210120025,0.15409981140983148
0.086,0.11192213977052494,0.4871258987692268,0.18517124495584067,0.08655164677478105,0.07097056566401616,0.10560675764039809,0.018277521463502155,0.028950442890721795,0.04027695116389293,0.2605961107049895,0.4168301930665113,0.15358504221212202
0.087,0.11107474994135816,0.4827899213917991,0.18343426064868348,0.08860363847640512,0.07127865050695154,0.1064276298846253,0.01824608374304549,0.028601854683148954,0.04016420103743755,0.26225560467014886,0.4173646047270953,0.15305073271704833
0.088,0.11019117778467206,0.4783791959076676,0.1816558941703476,0.09068601705290016,0.07157129774863352,0.10726522762501357,0.01822131965565463,0.02825383424714752,0.040046808698094134,0.2638384453882374,0.4178117493690313,0.15249851493478309
0.089,0.10927247436647455,0.4738978197539378,0.1798393802957149,0.09279839824563281,0.071848315479552,0.10812009608367817,0.01820377528854747,0.027907282734517102,0.03992530903220349,0.26534426803689626,0.41817240418758844,0.1519300068031415
0.09,0.10831971055759936,0.4693497935956731,0.1779878704033364,0.0949403514343224,0.07210950398662053,0.10899275837489637,0.018193995413296398,0.027563095404970633,0.03980022910360938,0.2667727257209131,0.41844736955331063,0.15134681044843065
0.091,0.10733397595958459,0.46473901985351446,0.176104430948539,0.09711139951303602,0.07235465642697349,0.10988371472172145,0.018192522876955945,0.02722216075249292,0.03967208770589785,0.26812349188044815,0.4186374673228277,0.15075051051743138
0.092,0.10631637781988577,0.46006930159250625,0.17419204216592798,0.0993110188462623,0.07258355955720605,0.11079344170104603,0.018199897989200846,0.026885359642743023,0.03954139493512431,0.26939626270909056,0.4187435392009414,0.15014267258234065
0.093,0.10526803993724386,0.45534434176077276,0.17225359699770207,0.10153863930561276,0.07279599451716784,0.11172239151664644,0.01821665790582125,0.02655356446199047,0.03940865178322414,0.2705907595696634,0.41876644516034744,0.1495248416203534
0.094,0.10419010155801109,0.4505677427652893,0.1702919002437059,0.10379364438752571,0.07299173766729315,0.11267099129968237,0.01824333600888917,0.02622763827819406,0.03927434975217724,0.27170673139505286,0.41870706192476786,0.14889854056945512
0.095,0.10308371626427316,0.4457430063705638,0.16830966792863128,0.1060753714121725,0.07317056147827766,0.1136396424361886,0.018280461283968905,0.025908434014850133,0.03913897048890943,0.2727439570606594,0.41856628152047615,0.14826526896171888
0.096,0.10195005085450391,0.4408735339047776,0.16630952688120076,0.10838311180359475,0.07333223547168785,0.11462871992097957,0.018328557694695283,0.02559679363828755,0.03900298544080976,0.273702247714513,0.41834500990031953,0.14762650163517896
0.097,0.10079028421739951,0.4359626267570626,0.16429401451963352,0.11071611145092528,0.0734765272098706,0.11563857173731157,0.01838814355509363,0.025293547359034114,0.038866855531644415,0.27458144905068277,0.41804416564342267,0.1469836875249803
0.098,0.0996056061995474,0.431013487149192,0.16226557883713807,0.11307357115035091,0.07360320333330157,0.1166695182615341,0.018459730900041323,0.02499951284788816,0.038731030857557414,0.27538144351144295,0.41766467873289886,0.14633824853427402
0.099,0.09839721646755817,0.42602921916506964,0.16022657858058842,0.11545464712722686,0.0737120306433518,0.11772185169197094,0.01854382485436547,0.024715494467268995,0.0385959504028049,0.2761021524039116,0.4172074894129352,0.14569157848502223
0.1,0.09716632336543082,0.42101283002170636,0.15817928361499006,0.1178584516374059,0.07380277722825472,0.11879583550144367,0.01864092300117876,0.024442282518413648,0.03846204177479807,0.27674353791718836,0.41667354712562604,0.14504504214867397
0.101,0.09591414276796104,0.4159672315656648,0.15612587546577808,0.12028405364650395,0.07387521362994538,0.11989170391304155,0.018751514750108774,0.024180652504976155,0.03832972095806248,0.2773056050266193,0.4160638095268487,0.14439997435636243
0.102,0.09464189693103706,0.41089524197925387,0.15406844803054145,0.12273047958540861,0.07392911404928351,0.12100966139906327,0.0188760807062229,0.023931364413580552,0.03819939208673007,0.2777884032727689,0.4153792415794508,0.1437576791879691
0.103,0.09335081333957718,0.40579958768088853,0.15200900845138418,0.1251967141799845,0.07396425758699862,0.12214988220331141,0.019015092040467054,0.023695162011857823,0.03807144723521612,0.27819202840439256,0.4146208147210817,0.14311942923907706
0.104,0.09204212355371325,0.400682905404287,0.14994947813893256,0.12768170135259893,0.07398042951758399,0.12331250988730126,0.019169009862468164,0.02347277216454932,0.037946266226778984,0.27851662387717147,0.4137895061030133,0.14248646496448575
0.105,0.09071706205360582,0.3955477444415635,0.14789169393899507,0.13018434519284056,0.07397742259313643,0.12449765690116646,0.019338284596606737,0.02326490416818315,0.03782421645965193,0.27876238220302824,0.41288629789539105,0.14185999409669503
0.106,0.08937686508306944,0.3903965690362448,0.1458374094329909,0.13270351099465982,0.07395503837401457,0.1257054041801245,0.01952335536223546,0.023072249104855943,0.03770565275041654,0.27892954614807874,0.4119121766536285,0.14124119113746025
0.107,0.0880227694919611,0.38523176091346834,0.14378829636354523,0.13523802635703172,0.07391308858298098,0.12693580076735833,0.019724649358951296,0.022895479215610262,0.03759091719420261,0.27901840977999337,0.4108681327405191,0.14063119692024492
0.108,0.08665601157715914,0.3800556219358236,0.1417459461768983,0.13778668234523175,0.073851396479279,0.12818886346402597,0.019942581257850252,0.022735247293845497,0.03748033904127217,0.2790293193675206,0.4097551597991434,0.14003111824103903
0.109,0.08527782592203481,0.3748703768740064,0.1397118716739458,0.14034823470974803,0.07376979824895247,0.12946457650706328,0.020177552599682045,0.022592186099243787,0.0373742345894618,0.2789626741360522,0.4085742542726201,0.13944202755471738
0.11,0.08388944423455563,0.36967817628157135,0.13768750876184074,0.14292140515998275,0.07366814440756121,0.13076289127535992,0.02042995120082629,0.022466907792651054,0.03727290709198086,0.27881892688366006,0.4073264149675534,0.13886496273372959
0.111,0.08249209418458013,0.3644810994627287,0.13567421829806392,0.14550488269009051,0.07354630121140912,0.13208372602477103,0.020700150568047603,0.022360003392390235,0.03717664667998126,0.2785985844621424,0.40601264265848525,0.13830092688562126
0.112,0.08108699824128525,0.359281157521397,0.1336732880187762,0.14809732495469183,0.07340415207340518,0.13342696565237122,0.02098850932297841,0.022272042252461044,0.037085730299294274,0.2783022081274597,0.4046339397306506,0.13775088822557863
0.113,0.07967537251194336,0.3540802964788651,0.13168593454312474,0.15069735969265244,0.07324159897964398,0.1347924614902911,0.021295370637281444,0.022203571563115247,0.03700042166072491,0.27793041376360533,0.40319130985812374,0.13721577999995033
0.114,0.07825842558352947,0.34888040044645235,0.12971330544493162,0.15330358619766862,0.07305856390289533,0.1361800311293752,0.021621061679430936,0.02215511587429217,0.036920971203257075,0.2774838719836414,0.4016857577143671,0.136696500456487
0.115,0.07683735736876117,0.3436832948387391,0.12775648138304171,0.1559145768348253,0.07285499020922456,0.1375894582727758,0.021965893074060123,0.022127176642374142,0.036847616069705554,0.27696330811145653,0.40011828871259564,0.13619391285691781
0.116,0.0754133579584115,0.3384907496123469,0.12581647828128192,0.158528878602557,0.07263084405400688,0.13902049261928437,0.022330158374796696,0.02212023180074555,0.036780580094382224,0.276369502047946,0.39848990877435186,0.13570884552749796
0.117,0.07398760648206713,0.3333044825148502,0.12389424954879506,0.16114501473963092,0.07238611576363767,0.14047284977600763,0.022714133551476202,0.022134735354578106,0.036720073802590736,0.2757032880258495,0.39680162412590897,0.13524209194341735
0.118,0.07256126997986506,0.3281261623280459,0.12199068833139536,0.16376148637688287,0.07212082119924813,0.14194621119982398,0.023118076492633335,0.022171117000312,0.03666629442184306,0.274965554258118,0.3950544411232983,0.13479441084335392
0.119,0.07113550228807375,0.32295741208956,0.12010662978465754,0.1663767742335392,0.07183500309876469,0.1434402241669878,0.0235422265241241,0.022229781770226203,0.036619425904820785,0.27415724248516965,0.3932493661072997,0.13436652637078636
0.12,0.06971144294154097,0.3177998122767312,0.11824285335974156,0.1689893403579639,0.07152873239357385,0.14495450177029398,0.023986803944763636,0.02231110970253269,0.03657963896412902,0.2732793474267093,0.3913874052897824,0.13395912823875103
0.121,0.06829021609605003,0.3126549039368793,0.11640008509339396,0.1715976299125806,0.07120210949600736,0.14648862294320641,0.024452009579788107,0.022415455537341276,0.03654709111892101,0.2723329161438551,0.389469564672188,0.13357287191455927
0.122,0.0668729294735659,0.3075241917483942,0.11457899989406167,0.17420007300255244,0.07085526555380346,0.14804213251052334,0.024938024352949343,0.022543148438847162,0.036521926753440376,0.27131904731729667,0.38749684999614525,0.13320837882074052
0.123,0.06546067333313861,0.3024091469975445,0.11278022381653076,0.17679508654756212,0.0704883636677376,0.14961454126521526,0.025445008878033304,0.022694491744007405,0.03650427718757213,0.2702388904470291,0.3854702667251518,0.13286623654825355
0.124,0.0640545194700803,0.29731121045659803,0.11100433631792582,0.17938107619583615,0.07010160006862952,0.15120532607111398,0.02597310307055994,0.022869762737967245,0.036494260759418855,0.26909364497907656,0.38339082005547676,0.13254699907788603
0.125,0.06265552024580431,0.2922317951496769,0.10925187248819215,0.18195643827933114,0.06969520525006453,0.15281392999114846,0.026522425780475072,0.023069212456388304,0.036491982919895395,0.2678845593643757,0.3812595149537569,0.1322511870056702
0.126,0.06126470765052296,0.2871722889936858,0.10752332524823432,0.18451956180877443,0.06926944505328589,0.15443976244097188,0.02709307444659186,0.023293065514845064,0.03649753633929013,0.2666129300546931,0.3790773562182627,0.13197928776810894
0.127,0.05988309240084571,0.28213405730268043,0.10581914750885822,0.18706883050692688,0.06882462170078937,0.15608219936811904,0.02768512477355235,0.02354151996540797,0.03651100102566541,0.26528010044010963,0.37684534856033647,0.131731755862978
0.128,0.05851166307411902,0.27711844514540995,0.10413975428366677,0.18960262487815704,0.06836107477527072,0.15774058345722927,0.028298630432031787,0.023814747180493645,0.03653244445494521,0.2638874597319683,0.37456449670214875,0.13150901306161203
0.129,0.0571513852811836,0.27212677954726755,0.10248552474939042,0.19211932431209514,0.06787918214063723,0.15941422436218597,0.028933622782916044,0.024112891764128935,0.03656192171249102,0.26243644179450587,0.3722358054867615,0.13131144860887878
0.13,0.0558032008790508,0.2671603715296231,0.10085680424765057,0.1946173092189215,0.0673793608020374,0.16110239896642897,0.02959011062608461,0.024436071490713498,0.03659947564594209,0.2609285239275146,0.3698602799965156,0.13113941940756216
0.131,0.05446802722477325,0.2622205179816687,0.09925390622293387,0.19709496319352518,0.06686206770216109,0.16280435167299423,0.030268079974470806,0.02478437727144726,0.03664513702902559,0.25936522560148895,0.367438925675913,0.1309932501844979
0.132,0.05314675647161252,0.25730850336242334,0.0976771140924575,0.19955067520539926,0.06632780045146743,0.16451929472599489,0.030967493853942634,0.025157873148550974,0.0366989247359943,0.25774810714586566,0.3649727484554415,0.13087323363641287
0.133,0.0518402549083908,0.2524256012331881,0.0961266830447627,0.2019828418106536,0.06577709799038609,0.16624640856522613,0.03168829212952582,0.025556596317415702,0.03676084592628862,0.2560787683901549,0.3624627548730959,0.1307796305538769
0.134,0.05054936234271437,0.24757307562298222,0.0946028417649678,0.2043898693819292,0.06521054118198484,0.16798484221545876,0.03243039135841257,0.025980557176748617,0.03683089623899695,0.25435884725707353,0.3599099521909493,0.1307126699221245
0.135,0.049274891528549435,0.24275218223108921,0.09310579408566523,0.20677017635140665,0.06462875333394806,0.1697337137117948,0.03319368467012219,0.02642973940676406,0.03690905999664595,0.25259001830631256,0.35731534850495184,0.1306725489977464
0.136,0.048017627638496714,0.23796416947161497,0.091635720563214,0.20912219546145216,0.06403240064902933,0.17149211056228458,0.033978041674102684,0.026904100075419747,0.03699531041786652,0.2507739912273309,0.3546799528471925,0.13065943336056
0.137,0.04677832778088351,0.2332102793649619,0.09019277997986307,0.21144437601698052,0.06342219260343052,0.1732590902489728,0.034783308394985266,0.02740356977268525,0.03708960983845833,0.24891250927939496,0.35200477528082347,0.13067345694030683
0.138,0.04555772056168832,0.22849174828088614,0.08877711077262658,0.21373518613323977,0.062798882252642,0.17503368076854875,0.03560930723560046,0.02792805277279695,0.037191909940323606,0.24700734767697097,0.3492908269889508,0.1307147220184688
0.139,0.044356505691103464,0.22380980753772595,0.08738883239004842,0.21599311497251508,0.06216326646440524,0.17681488121391162,0.03645583696780571,0.028477427224399568,0.037302151987743254,0.24506031191837715,0.3465391203598678,0.13078329920620865
0.14,0.04317535363445875,0.2191656838627634,0.08602804657822118,0.2182166749631159,0.06151618607829751,0.17860166239798259,0.03732267275109637,0.029051545368436224,0.037420267070483224,0.2430732360556042,0.34375066907180774,0.1308792274002473
0.141,0.042014905307082025,0.21456059971920147,0.08469483859756592,0.22040440399383593,0.06085852599139776,0.18039296752118456,0.0382095661789478,0.029650233783592515,0.03754617635329881,0.24104798090347954,0.3409264881806617,0.13100251371919405
0.142,0.04087577181260362,0.20999577350566795,0.08338927837196035,0.22255486757673706,0.06019121516937712,0.18218771288405575,0.03911624535281909,0.030273293659070704,0.03767979133152694,0.23898643218674637,0.33806759421390925,0.13115313342330492
0.143,0.039758534224147934,0.20547241963430654,0.08211142157180648,0.22466666097064625,0.059515226582238095,0.18398478864660614,0.04004241498377701,0.030920501094472325,0.03782101409258515,0.23689049862394265,0.3351750052735878,0.13133102982113215
0.144,0.03866374340775372,0.20099174849334414,0.08086131063250403,0.22673841125723243,0.05883157706394716,0.18578305963600372,0.04098775652173599,0.031591607426575165,0.037969737583408616,0.23476210994714367,0.3322497411506461,0.13153611416710478
0.145,0.037591919887326436,0.19655496629964533,0.07963897570964633,0.22876877936099407,0.058141327095148986,0.1875813662041579,0.04195192831234661,0.032286339582778475,0.03812584588398945,0.23260321485667243,0.32929282345258554,0.13176826555473822
0.146,0.036543553750320625,0.19216327484646825,0.0784444355721671,0.23075646200403258,0.057445580508212274,0.18937852513659625,0.042934565781554385,0.033004400461030675,0.03828921448732469,0.23041577891004375,0.32630527574591933,0.132027330810727
0.147,0.03551910459329048,0.1878178711514312,0.07727769843458142,0.2327001935862289,0.05674548411401507,0.1911733306138148,0.043935281647941825,0.033745469335974276,0.03845971058614677,0.22820178234476574,0.32328812371460125,0.13231312439539245
0.148,0.034519001506405536,0.18351994700969948,0.07613876272940083,0.23459874798144315,0.05604222724996091,0.19296455522606293,0.04495366616295391,0.034509202291010385,0.03863719336681045,0.22596321783520007,0.32024239533531734,0.13262542831503227
0.149,0.03354364309595226,0.1792706884574846,0.07502761782079656,0.23645094024088195,0.05533704124889424,0.19475095104224374,0.0459892873792588,0.035295232675917464,0.03882151431069801,0.22370208818452564,0.31716912107016193,0.1329639920515934
0.15,0.03259339754386304,0.1750712751508639,0.07394424466052593,0.23825562819576465,0.05463119882861855,0.1965312507332426,0.04704169144757455,0.036103171589643025,0.03901251750351111,0.22142040395371745,0.31406933407692345,0.13332853251508126
0.151,0.03166860270322604,0.1709228796648905,0.07288861638718779,0.2400117139527849,0.053926013401882335,0.1983041687496957,0.04811040294241788,0.03693260838782482,0.039210039952786324,0.21912018103035313,0.31094407043682715,0.1337187340240032
0.152,0.030769566228734665,0.16682666671770877,0.07186069886988329,0.241718145277498,0.05322283830689821,0.20006840255378505,0.049194925217234016,0.03778311121464804,0.039413911913913455,0.21680343814082348,0.30779436939927285,0.13413424831904996
0.153,0.02989656574097485,0.1627837923243346,0.07086045119745532,0.2433739168622427,0.05252306595870813,0.2018226339042899,0.05029474078935819,0.038654227558623515,0.03962395722490793,0.21447219431006412,0.30462127364271124,0.13457469461491944
0.154,0.029049849023446907,0.15879540288463342,0.06988782611458921,0.24497807147647177,0.05182812692191847,0.2035655301938277,0.05140931175518741,0.03954548483187601,0.039839993650047895,0.21212846627355927,0.3014258295501978,0.13503965969491788
0.155,0.028229634251237458,0.15486263421012847,0.06894277040627562,0.24652970099849542,0.05113948890561899,0.20529574583696755,0.052538080235813196,0.04045639097256553,0.040061833232434826,0.20977426584732134,0.2982090874976058,0.13552869805268697
0.156,0.02743611025025136,0.15098661049429885,0.06802522523228823,0.24802794732873482,0.050458655681575884,0.2070119237078506,0.053680468853284,0.04138643507002973,0.04028928265541458,0.20741159726255995,0.29497210215186126,0.1360413320850861
0.157,0.02666943678598429,0.14716844323116698,0.06713512641343504,0.24947200318551566,0.04978716592704615,0.2087126966259566,0.05483588123754269,0.04233508801222369,0.04052214361274478,0.20504245447276775,0.2917159327761674,0.1365770523399556
0.158,0.02592974488080127,0.1434092300869888,0.06627240467135885,0.250861112785123,0.04912659199385688,0.21039668888874724,0.05600370256406226,0.04330180315498089,0.04076021318727165,0.20266881844155746,0.28844164353883645,0.13713531782221025
0.159,0.02521713715872908,0.13971005372973871,0.06543698582379638,0.2521945724085137,0.0484785386055467,0.21206251785015684,0.05718330012222502,0.04428601701263041,0.041003284237815164,0.20029265441989288,0.285150303822148,0.13771555636144422
0.16,0.02453168821679298,0.13607198062094492,0.06462879093721421,0.25347173085744484,0.04784464148460281,0.21370879554413907,0.058374023914566274,0.0452871499694518,0.04125114579382359,0.19791590922126187,0.2818429885275145,0.13831716504408445
0.161,0.02387344502191215,0.13249605977427897,0.06384773643881907,0.2546919898030223,0.04722656591192812,0.21533413035264015,0.05957520728709731,0.04630460701139398,0.04150358345730288,0.19554050850302165,0.2785207783731664,0.13893951071290125
0.162,0.023242427332357284,0.128983321485381,0.06309373418986167,0.2558548040297363,0.0466260052207662,0.21693712871739218,0.060786167590997114,0.04733777847740265,0.04176037981143074,0.1931683540618685,0.27518476018025456,0.13958193053654294
0.163,0.022638628142741087,0.12553477603732768,0.062366691522185866,0.2569596815782446,0.0460446792273099,0.21851639689469254,0.062006206875954054,0.04838604082959462,0.0420213148352143,0.1908013211511683,0.2718360271429269,0.1402437326516155
0.164,0.022062014151470192,0.12215141238616736,0.06166651124001212,0.2580061837906376,0.04548433260028665,0.22007054275197513,0.06323461261536298,0.049448757441419154,0.04228616632354352,0.18844125582770535,0.2684756790774067,0.14092419687969093
0.165,0.021512526249571663,0.11883419683090717,0.060993091589128565,0.25899392526231196,0.044946733171843924,0.2215981776044561,0.06447065846344958,0.050525279402858926,0.042554710311920006,0.18608997233514088,0.2651048226445191,0.14162257552163507
0.166,0.020990080029857396,0.11558407167227751,0.060346326195725324,0.2599225737047241,0.044433670192174854,0.22309791808959306,0.06571360504423926,0.05161494634161081,0.042826721505185024,0.18374925053117214,0.2617245715396715,0.142338094231551
0.167,0.02049456631539713,0.11240195386468976,0.05972610397721738,0.26079184972311525,0.04394695253038654,0.22456838807639776,0.0669627007721054,0.052717087259126064,0.04310197370948833,0.18142083336499867,0.25833604664394066,0.14306995297248165
0.168,0.02002585170632858,0.10928873366569689,0.0591323090273608,0.2616015265129447,0.043488406824160865,0.22600822060607412,0.06821718270343737,0.05383102138023955,0.0433802402667642,0.17910642441144367,0.2549403761298194,0.14381732705574024
0.169,0.019583779144032015,0.10624527328725562,0.05856482047806327,0.26235142947838175,0.04305987558080836,0.22741605985999938,0.06947627741879245,0.054956059015109894,0.043661294490850606,0.1768076854677936,0.25153869551536134,0.14457936826531234
0.17,0.019168168491704184,0.10327240555289982,0.0580235123402775,0.2630414357757554,0.04266321523239513,0.2287905631507252,0.07073920193470686,0.056091502432037144,0.04394491010437239,0.17452623421925123,0.24813214766073813,0.1453552060683671
0.171,0.018778817130349207,0.10037093256476638,0.05750825332644991,0.2636714737844898,0.042300294147696586,0.23013040293154288,0.07200516464416487,0.05723664673972876,0.044230861675360444,0.17226364197887703,0.2447218827015669,0.14614394891240368
0.172,0.018415500569220263,0.09754162438418952,0.05701890665702429,0.26424152250772975,0.04197299060384519,0.2314342688199813,0.07327336628467641,0.05839078077749264,0.04451892505246556,0.17002143150795515,0.24130905791351728,0.14694468560906226
0.173,0.018077973069697016,0.0947852177293335,0.05655532985347047,0.2647516109047907,0.041683190720538735,0.23270086963061282,0.07454300093276084,0.059553188011883265,0.04480887779749568,0.16780107492269647,0.23789483750307636,0.14775648680416076
0.174,0.017765968281590307,0.09210241469307286,0.056117374520287824,0.2652018171575765,0.04143278635968399,0.23392893541244528,0.07581325702364618,0.060723147438279654,0.045100499613932025,0.16560399169309373,0.2344803923199584,0.14857840653301999
0.175,0.017479199890828554,0.08949388148414932,0.05570488611827966,0.26559226787325635,0.04122367299327937,0.23511721948602632,0.07708331839484242,0.061899934485900844,0.04539357277001248,0.16343154673950971,0.23106689948754386,0.14940948385969544
0.176,0.017217362277442437,0.08696024719440668,0.0553177037312724,0.26592313722551436,0.041057747542217825,0.2362645004750907,0.07835236535213282,0.0630828219247503,0.04568788251497695,0.16128504863223073,0.2276555419485776,0.15024874459831564
0.177,0.016980131182730628,0.08450210259477738,0.05495565982830382,0.26619464603640475,0.040936906188587696,0.23736958432724775,0.07961957575632249,0.06427108077300374,0.04598321748708385,0.15916574789883417,0.2242475079244337,0.15109520311428287
0.178,0.016767164384469766,0.08211999896259754,0.05461858002313583,0.2664070608004356,0.040863042163900534,0.23843130631808773,0.08088412612886857,0.06546398120335266,0.046279370112049745,0.15707483544371112,0.2208439902877407,0.15194786420263923
0.179,0.016578102379013516,0.07981444694276606,0.05430628283282273,0.2665606926520957,0.04083804351560732,0.23944853303298258,0.08214519277438578,0.06666079344677427,0.046576136990624684,0.1550134410835959,0.217446185850252,0.1528057250404591
0.18,0.01641256906915586,0.07758591544518785,0.05401857943688261,0.2666558962780377,0.04086379085414093,0.24042016432086039,0.08340195291791361,0.06786078869208262,0.04687331927407717,0.15298263220243136,0.21405529457013717,0.1536677772096394
0.181,0.016270172456629425,0.07543483058089094,0.05375527343853813,0.26669306877564203,0.040942155082774476,0.24134513521412454,0.08465358585478783,0.06906323997946885,0.04717072302643137,0.1509834125284292,0.21067251868486783,0.15453300878594042
0.182,0.016150505338170657,0.0733615746390061,0.05351616062940538,0.26667264846053407,0.041074995112545316,0.24222241780869497,0.08589927411092119,0.07026742308615141,0.04746815957235894,0.14901672103563307,0.20729906177744306,0.15540040648964468
0.183,0.01605314600411386,0.07136648510668817,0.05330102875899525,0.2665951136264249,0.04126415556461916,0.24305102309787988,0.08713820461130434,0.07147261740217584,0.04776544582966482,0.14708343097185927,0.2039361277845711,0.15626895789264295
0.184,0.01597765893848829,0.0694498537338231,0.053109657310328635,0.2664609812611016,0.04151146446243647,0.2438300027534016,0.08836956985442979,0.07267810679447621,0.04806240462536161,0.14518434901440244,0.2005849199558469,0.15713765367623977
0.185,0.01592359551969008,0.06761192564429139,0.052941817282943116,0.26627080572254086,0.04181873091610892,0.24455845084670125,0.08959256909027925,0.07388318045734563,0.048358864994320926,0.1433202145544824,0.19724663977284476,0.1580054899334105
0.186,0.015890494720782574,0.06585289849535897,0.052797270984488165,0.26602517737895337,0.04218774280155719,0.2452355055034102,0.09080640949929572,0.07508713374760148,0.04865466245958216,0.14149169911095927,0.1939224858367871,0.15887147050866562
0.187,0.015877883808595714,0.06417292168679459,0.052675771832027464,0.26572472121659974,0.0426202644370142,0.2458603504838701,0.09201030736964055,0.07628926900280047,0.04894963929343192,0.13969940587339388,0.19061365273300976,0.15973460936814618
0.188,0.015885279040827958,0.06257209562121421,0.0525770641640992,0.2653700954192459,0.04311803425961112,0.24643221668260892,0.09320348926987958,0.07748889634083835,0.04924364475849342,0.13794386937411673,0.1873213298800264,0.16059393299201824
0.189,0.015912186360480203,0.061050471017163294,0.05250088306443301,0.26496198992331527,0.04368276250487798,0.24695038353979734,0.09438519321421948,0.07868533443930946,0.04953653532821064,0.13622555528855643,0.18404670037048668,0.16144848278077092
0.19,0.015958102086965225,0.05960804827641145,0.052446954198150764,0.2645011249529215,0.04431612889205641,0.2474141803578756,0.09555466981734369,0.07987791129302783,0.04982817488617638,0.1345448603627456,0.18079093981065458,0.16229731746654252
0.191,0.016022513603293927,0.05824477690687032,0.05241499366117912,0.2639882495390534,0.045019780318210835,0.24782298751663553,0.09671118343589943,0.08106596494821945,0.0501184349038726,0.13290211246657602,0.1775552151644246,0.16313951552023986
0.192,0.016104900038731867,0.056960555002552794,0.052404707843497794,0.2634241400272456,0.04579532856416484,0.2481762375803878,0.09785401329363126,0.08224884421201561,0.05040719459659386,0.13129757077117474,0.1743406836071096,0.16397417754482535
0.193,0.016204732946284987,0.055755228781937505,0.05241579330684635,0.2628095985780251,0.04664434801540894,0.24847341629147915,0.09898245458707187,0.08342590933609291,0.05069434105742237,0.12973142604871302,0.17114849139359214,0.16480042864487524
0.194,0.016321476974405835,0.05462859218617641,0.052447936677424985,0.26214545166418884,0.04756837340119755,0.24871406344551986,0.10009581956874694,0.08459653267344083,0.05097976936931103,0.1282038010932529,0.16797977274479237,0.16561742076217656
0.195,0.016454590532241145,0.053580386538488636,0.05250081455417108,0.26143254856873155,0.04856889755516416,0.2488977736450626,0.10119343860484481,0.0857600993075013,0.051263382695383275,0.1267147512616586,0.1648356487558323,0.16642433496690948
0.196,0.016603526447782794,0.052610300266079615,0.0525740934331253,0.26067175988673974,0.04964736920086145,0.2490241969301705,0.1022746612043881,0.08691600765309561,0.051545092347606195,0.1252642651340316,0.16171722632885238,0.16722038369362544
0.197,0.016767732618315694,0.05171796868578734,0.05266742964843628,0.25986397603420885,0.05080519076567719,0.24909303928585413,0.10333885701716582,0.08806367002883038,0.05182481783397921,0.12385226529336395,0.15862559713293428,0.16800481291087088
0.198,0.01694665265258996,0.050902973854549165,0.05278046933054375,0.2590101057664241,0.052043716226623904,0.24910406302757476,0.10438541679790177,0.08920251320091337,0.052102486884399196,0.12247860922408177,0.15556183659316858,0.16877690421289854
0.199,0.017139726504199985,0.05016484448566608,0.05291284838213158,0.2581110747083699,0.053364248991423675,0.24905708706658578,0.10541375333437149,0.0903319788985083,0.052378035455409776,0.12114309032894717,0.15252700291036003,0.16953597682157526
0.2,0.017346391095713995,0.049503055931706653,0.053064192472539594,0.25716782389950915,0.054768039818261414,0.24895198705699695,0.10642330233731052,0.09145152430086272,0.05265140771410938,0.11984543906352696,0.14952213611238346,0.17028138948655852
0.201,0.017566080933138987,0.04891703023475181,0.05323411705130914,0.25618130835507164,0.056256284777525416,0.2487886954263954,0.10741352329003587,0.09256062249646234,0.05292255600158255,0.11858532418706771,0.146548257137715,0.17101254227195617
0.202,0.017798228710447086,0.048406136244518096,0.05342222738158817,0.25515249564571557,0.0578301232588175,0.24856720129166837,0.10838390025583582,0.09365876291445324,0.0531914407761748,0.11736235412831846,0.14360636695122828,0.17172887821816726
0.203,0.018042265903965647,0.04796968980476407,0.05362811859407107,0.2540823644972314,0.059490636026587405,0.24828755026161847,0.10933394264119961,0.09474545172847748,0.05345803053694475,0.11617607846447338,0.14069744569191453,0.17242988486841238
0.204,0.01829762335655816,0.047606954008224026,0.0538513757621249,0.25297190341180686,0.06123884332780294,0.24794984412783608,0.11026318591298342,0.09582021223304481,0.053722301727508824,0.11502598951115656,0.1378224518517443,0.17311509565056996
0.205,0.01856373185156239,0.04731713952018763,0.05409157399880992,0.2518221093122724,0.06307570305519322,0.24755424044523572,0.11117119226763111,0.09688258519254499,0.0539842386205261,0.11391152402106731,0.13498232148463588,0.1737840911064028
0.206,0.018840022676501974,0.04709940497075596,0.05434827857646348,0.2506339862107543,0.06500210896970797,0.2471009520037342,0.11205755125068827,0.09793212916327121,0.05424383318304625,0.11283206498862185,0.13217796744434793,0.1744364999617019
0.207,0.019125928176636692,0.046952857415670644,0.054621045069608375,0.24940854390312334,0.06701888898594104,0.24659024619285352,0.11292188032525328,0.09896842078902518,0.0545010849230259,0.11178694355762611,0.12941027865020918,0.17507200003256912
0.208,0.01942088229836668,0.04687655286561283,0.05490941952189065,0.24814679669065554,0.06912680352434257,0.24602244426151632,0.1137638253883361,0.09999105507122329,0.054756000717288374,0.1107754410286024,0.12668011937978324,0.17569031896486278
0.209,0.01972432112254374,0.04686949688379162,0.05521293863770134,0.24684976213043988,0.07132654393413108,0.24539792047582415,0.11458306123436508,0.10099964561464819,0.05500859462121805,0.1097967909621061,0.12398832858788038,0.17629123480561915
0.21,0.02003568338764096,0.046930645251706746,0.05553112999901453,0.2455184598161957,0.07361873099087766,0.24471710117827866,0.11537929196516299,0.10199382485021423,0.05525888766037849,0.108850181373978,0.12133571925163854,0.17687457640671483
0.211,0.020354411002785965,0.047058904702921484,0.05586351230780587,0.24415391019136268,0.07600391347286686,0.24398046375251334,0.11615225134556889,0.10297324423624389,0.055506907604238945,0.10793475701817387,0.11872307774165439,0.17744022366219298
0.212,0.02067994955058943,0.04725313372475865,0.05620959565428621,0.2427571333965007,0.07848256682050331,0.24318853549815783,0.11690170310371746,0.10393757443982402,0.05575268872218561,0.1070496217524919,0.11615116321922299,0.17798810758135714
0.213,0.02101174877974486,0.04751214342776343,0.056568881811024346,0.24132914815317005,0.0810550918832164,0.24234189242080398,0.11762744117471498,0.10488650549977248,0.055996271522139894,0.10619384098215776,0.1136207070596577,0.1785182102000072
0.214,0.021349263087361653,0.047834698482804604,0.05694086455291317,0.23987097068659838,0.08372181375846682,0.24144115794217,0.1183292898862119,0.10581974697273946,0.05623770247230378,0.10536644417594274,0.11113241230150137,0.1790305643319402
0.215,0.02169195199098147,0.04821951812556982,0.05732503000283039,0.23838361368949348,0.08648298072749619,0.24048700153555355,0.11900710408420988,0.10673702806389176,0.05647703370685658,0.10456642744912589,0.1086869531211169,0.17952525316249807
0.216,0.022039280590189805,0.048665277228183035,0.05772085700272853,0.23686808532935869,0.08933876329244542,0.23948013729160203,0.11966076919735827,0.10763809774359163,0.056714322716702265,0.10379275620737982,0.10628497433199001,0.1800024096855915
0.217,0.02239072001772287,0.04917060743751285,0.058127817509786,0.23532538830166752,0.09228925331928772,0.2384213224195267,0.12029020123799535,0.10852272485134136,0.05694963202653741,0.10304436784533805,0.10392709090782233,0.18046221598544757
0.218,0.022745747879914312,0.04973409837966623,0.058545377017199536,0.23375651893112945,0.09533446329090356,0.23731135568911357,0.12089534673832542,0.10939069818815199,0.05718302885965296,0.10232017449332614,0.101613887528487,0.18090490236426893
0.219,0.023103848686319848,0.05035429892996139,0.058972994999111635,0.23216246632322168,0.09847432567442212,0.2361510758191717,0.12147618262039864,0.11024182659831765,0.05741458479206585,0.10161906580549351,0.09934591814783814,0.18133074631714113
0.22,0.023464514268351437,0.051029718547595006,0.05941012537913954,0.2305442115678801,0.10170869240683182,0.2349413598183279,0.1220327159990815,0.11107593904139125,0.05764437539761433,0.10093991178225205,0.09712370558251573,0.18174007135572648
0.221,0.02382724418675785,0.05175882867403448,0.05985621702187188,0.2289027269969148,0.10503733450272304,0.23368312128427843,0.122564983917792,0.1118928846549271,0.057872479885778295,0.10028156561971494,0.09494774112092415,0.18213324568286463
0.222,0.024191546127838717,0.05254006419411476,0.060310714246691016,0.22723897549614142,0.1084599417879065,0.23237730866798006,0.1230730530175072,0.11269253280831733,0.05809898073394192,0.09964286657856224,0.09281848415171927,0.18251068072089624
0.223,0.024556936288298532,0.05337182495864316,0.06077305736319265,0.22555390987258683,0.11197612276243755,0.23102490350957888,0.12355701914017313,0.11347477314784082,0.05832396331586892,0.09902264286453834,0.09073636181122299,0.18287282949760084
0.224,0.024922939748695045,0.054252477367255796,0.06124268322750959,0.22384847227652657,0.11558540459635615,0.22962691865319265,0.12401700686826031,0.1142395156328798,0.05854751552808245,0.09841971451261414,0.08870176864937021,0.18322018489456243
0.225,0.025289090835434076,0.0551803560101065,0.06171902581880268,0.22212359367746656,0.11928723326115667,0.22818439644760424,0.12445316900256585,0.11498669056310001,0.05876972741576579,0.09783289626664966,0.0867150663141497,0.18355327776385247
0.226,0.025654933471254433,0.05615376536682205,0.062201516835175635,0.22038019339269735,0.12308097379967911,0.2266984069397116,0.12486568598058204,0.11571624859629336,0.058990690799702025,0.097261000446282,0.08477658325487729,0.18387267491989123
0.227,0.026020021514148412,0.05717098156101199,0.06268958630812689,0.2186191786666286,0.12696591073686178,0.22517004606724755,0.12525476523799087,0.11642816075645582,0.05921049890559688,0.09670283979258731,0.08288661444509646,0.1841789770142783
0.228,0.026383919084639783,0.05823025416847805,0.06318266323457344,0.21684144429874302,0.1309412486334515,0.22360043385693895,0.12562064051595168,0.11712241843160416,0.0594292459970293,0.096157230284048,0.08104542112630014,0.18447281630195791
0.229,0.026746200881305034,0.05932980807720612,0.06368017622527962,0.21504787231771022,0.13500611278457683,0.22199071263403436,0.1259635711171377,0.11779903336076401,0.05964702701314905,0.09562299391431216,0.07925323057397177,0.18475485430741523
0.23,0.027106452484378173,0.06046784539708766,0.0641815541684712,0.21323933169877532,0.13915955006480435,0.22034204524888112,0.12628384111369578,0.11845803760934041,0.05986393721205159,0.09509896142325132,0.07751023588760246,0.1850257793997481
0.231,0.027464270647205462,0.06164254741727438,0.06468622690728842,0.2114166781210968,0.14340052992100197,0.2186556133260138,0.12658175851051193,0.11909948353195553,0.06008007182068766,0.09458397497287425,0.07581659580630291,0.18528630428586026
0.232,0.02781926357526201,0.06285207660892196,0.0651936259297132,0.20958075376111884,0.14772794551412397,0.2169326155410237,0.12685765436727367,0.11972344372155753,0.060295525691957605,0.09407689075969934,0.07417243455165405,0.18553716343144963
0.233,0.02817105119240643,0.06409457867096444,0.0657031850696083,0.20773238711771944,0.15214061501067466,0.215174265930286,0.12711188188286096,0.12033001094341098,0.06051039296954884,0.09357658155527637,0.07257784169940502,0.18577911042005138
0.234,0.028519265394040972,0.06536818461637295,0.0662143412174235,0.20587239286485845,0.1566372830243867,0.21338179223849427,0.1273448154454372,0.12091929805235774,0.06072476676092853,0.093081939166538,0.07103287208163216,0.18601291526070549
0.235,0.02886355028683485,0.06667101289622229,0.06672653503908843,0.20400157172774863,0.16121662220825664,0.21155643430880766,0.12755684965154565,0.12149143789147127,0.060938738818827186,0.09259187680774918,0.06953754572097089,0.18623936165489033
0.236,0.029203562414682457,0.06800117155863736,0.06723921170158233,0.20212071037920032,0.16587723499668708,0.20969944252015388,0.12774839829744225,0.12204658317000988,0.06115239923147296,0.09210533137612052,0.06809184779841258,0.18645924423313925
0.237,0.029538970970566233,0.0693567604395819,0.06775182160355323,0.20023058135360158,0.17061765549704844,0.20781207627589432,0.1279198933459301,0.12258490631831764,0.061365836121749374,0.09162126562355812,0.06669572865615503,0.1866733657714049
0.238,0.029869457993984973,0.07073587338223708,0.06826382110932114,0.1983319429768278,0.17543635152948908,0.20589560254762965,0.12807178387204882,0.12310659931706207,0.061579135355445014,0.09113867021757105,0.06534910383683172,0.18688253439673383
0.239,0.030194718553609685,0.0721366004815953,0.06877467328444627,0.196425539311125,0.18033172681329546,0.20395129447735735,0.12820453499090406,0.12361187349804971,0.06179238025874516,0.09065656568479384,0.06405185416031935,0.18708756079136898
0.24,0.030514460914809402,0.07355703035079153,0.06928384863100157,0.19451210011479825,0.18530212329757778,0.20198043004062347,0.12831862677071218,0.12410095931375763,0.062005651345185875,0.09017400423090023,0.06280382583913129,0.1872892554039627
0.241,0.03082840669164376,0.07499525240559797,0.06979082582061749,0.19259234081694193,0.19034582363355673,0.1999842907726145,0.12841455313379746,0.12457410607285138,0.06221902605234771,0.08969007143107406,0.061604830633210705,0.1874884256761512
0.242,0.031136290982900716,0.07644935916346507,0.07029509242330137,0.19066696250765477,0.19546105378521855,0.19796416055848196,0.12849282074801113,0.12503158163921668,0.06243257848862614,0.08920388778574861,0.06045464604473222,0.18768587329235548
0.243,0.031437862491703356,0.07791744855333682,0.07079614562994255,0.18873665194381684,0.2006459857746107,0.1959213244884623,0.1285539479108509,0.1254736720925128,0.06264637919051624,0.08871461013720124,0.05935301555331617,0.18788239146024258
0.244,0.031732883628194555,0.07939762623242139,0.07129349296631582,0.1868020815702663,0.2058987405574739,0.19385706777765654,0.1285984634285051,0.12590068134878088,0.06286049489084249,0.08822143294366017,0.05829964889183492,0.18807876222889522
0.245,0.03202113059485399,0.0808880079060308,0.0717866529963736,0.18486390955597837,0.21121739102438278,0.19177267474962303,0.12862690549206038,0.12631293074025324,0.06307498829839618,0.08772358940888837,0.05729422236279371,0.18827575385134365
0.246,0.032302393454008364,0.08238672164666638,0.07227515601260441,0.1829227798449618,0.21659996512193755,0.18966942788230615,0.12863982055297693,0.12671075855400823,0.06328991788935372,0.0872203524664343,0.05633637919502647,0.18847411819774537
0.247,0.032576476177138235,0.083891910208668,0.07275854471130268,0.18097932222178584,0.2220444490880291,0.1875486069142909,0.1286377621997374,0.12709451952961887,0.06350533771078706,0.08671103561907906,0.05542572994031196,0.1886745882251443
0.248,0.032843196675595626,0.08540173333485059,0.0732363748506697,0.17903415239192977,0.22754879079456738,0.1854114880090524,0.12862129003727918,0.12746458431617663,0.06372129719648986,0.08619499363525168,0.05456185290926581,0.18887787550939236
0.249,0.03310238681239437,0.0869143700516469,0.07370821588977429,0.1770878720772934,0.23311090319049307,0.18325934297466126,0.1285909685705452,0.12782133888936487,0.06393784099525544,0.08567162310551465,0.05374429464575758,0.18908466784441572
0.25,0.03335389239477445,0.08842802094920507,0.07417365160657484,0.17514106912726668,0.2387286678371187,0.18109343853635662,0.1285473660933071,0.12816518392937554,0.06415500881172795,0.08514036286340856,0.05297257043895177,0.18929562691350837
0.251,0.03359757314736526,0.08994091044279474,0.07463228069324829,0.1731943176456435,0.24439993852717334,0.17891503565943498,0.128491053583313,0.12849653416067597,0.06437283525991308,0.08460069427589284,0.052246164871962236,0.18951138603699072
0.252,0.03383330266583262,0.09145128901169094,0.07508371732720043,0.1712481781334858,0.25012254497813863,0.1767253889199147,0.12842260360474958,0.12881581765480377,0.0645913497293966,0.08405214140913388,0.051564532406082025,0.1897325480002152
0.253,0.0340609683509346,0.09295743541147886,0.07552759171616549,0.16930319764778,0.2558942965898076,0.17452574592037032,0.1283425892189036,0.12912347509759697,0.06481057626432467,0.08349427107569257,0.0509270979995258,0.18995968296579602
0.254,0.03428047132298711,0.0944576588554921,0.07596355061588327,0.1673599099754183,0.26171298625526745,0.17231734674807692,0.12825158290375033,0.1294199590224715,0.06503053345517992,0.08292669276915401,0.05033325775962747,0.19019332647393655
0.255,0.03449172631674277,0.0959503011608416,0.07639125781888208,0.1654188358215948,0.267576394213942,0.17010142347219057,0.1281501554830435,0.12970573301147006,0.06525123434329334,0.08234905849215127,0.049782379627430116,0.19043397753492047
0.256,0.034694661556777265,0.09743373885433984,0.07681039461291264,0.1634804830113474,0.27348229193473916,0.16787919967621356,0.12803887506533082,0.12998127086583847,0.06547268633799107,0.08176106248357058,0.04927380409357819,0.19068209681810525
0.257,0.03488921861356391,0.09890638523351904,0.07722066020756353,0.16154534670262574,0.27942844601683514,0.16565189002144287,0.12791830599329052,0.130247055747839,0.06569489114612258,0.08116244085050535,0.04880684494435241,0.19093810494204333
0.258,0.03507535224052312,0.1003666923779041,0.07762177212758545,0.15961390960905436,0.2854126220950542,0.16342069983659427,0.12778900780381716,0.13050357929555992,0.06591784471365988,0.08055297111046018,0.048380790036649704,0.19120238087047328
0.259,0.035253030192410946,0.10181315310598461,0.07801346657147468,0.15768664223048484,0.29143258873616257,0.16118682472828508,0.127651534199349,0.13075134071241837,0.06614153717890761,0.07993247164914327,0.04799490210059546,0.19147526041904656
0.26,0.03542223302546618,0.10324430287364798,0.07839549873393782,0.1557640030895075,0.29748612131169694,0.15895145020674237,0.1275064320310977,0.1309908458330401,0.0663659528367895,0.07930080109920912,0.04764841956848276,0.19175703487762966
0.261,0.035582953879728936,0.1046587216104321,0.0787676430909312,0.15384643897233988,0.3035710058322002,0.15671575132094348,0.12735424029503467,0.13122260616702247,0.06659107011358104,0.07865785764519649,0.04734055742866281,0.19204794975306824
0.262,0.0357351982439209,0.10605503549045721,0.07912969364615158,0.1519343851727721,0.30968504272707176,0.15448089229754158,0.1271954891417409,0.13144713792204837,0.0668168615514327,0.07800357825988787,0.047070508103057435,0.19234820363717345
0.263,0.03587898370325788,0.1074319186354772,0.07948146413812791,0.15002826573806521,0.31582605055357765,0.15224802617827304,0.12703069890137225,0.13166496100776923,0.06704329380195688,0.07733793787719373,0.04683744234698738,0.19265794720455665
0.264,0.03601433967053906,0.10878809474795921,0.07982278820740289,0.14812849371580372,0.32199186961803183,0.15001829445115514,0.12686037912517803,0.1318765980219232,0.06727032762821349,0.07666094850657953,0.04664051017004913,0.19297728234468825
0.265,0.03614130710090971,0.11012233867239687,0.08015351952361972,0.14623547140081428,0.3281803654916051,0.14779282667159174,0.12668502764512746,0.13208257322029093,0.06749791791452894,0.0759726582939354,0.04647884177686773,0.19330626143224458
0.266,0.03625993819071466,0.11143347788333852,0.08047353187263798,0.14434959058136745,0.33438943240287,0.14557274007045115,0.12650512965321975,0.1322834114723846,0.0677260136838507,0.07527315053369334,0.04635154852659643,0.19364488673955504
0.267,0.0363702960609696,0.11272039389890505,0.08078271920400573,0.14247123278401083,0.34061699648888943,0.14335913914724058,0.12632115680205025,0.13247963720509157,0.06795455812258555,0.07456254263685291,0.04625772391009588,0.19399310999466823
0.268,0.036472454426032745,0.11398202361916754,0.08108099563926265,0.1406007695165734,0.34686101888671633,0.14115311524767932,0.12613356632810993,0.13267177333691382,0.06818348861309624,0.07384098505943014,0.04619644454373446,0.1943508320884534
0.269,0.03656649724817666,0.11521736058950689,0.08136829544165375,0.1387385625089865,0.35311949864717335,0.13895574612612005,0.12594280019943263,0.13286034020597762,0.0684127367741401,0.07310866019565142,0.04616677117871419,0.19471790293387192
0.27,0.03665251837878204,0.11642545618982232,0.08164457294792478,0.13688496395160177,0.3593904754529858,0.1367680954941495,0.12574928428952373,0.13304585449543171,0.06864222850953597,0.07236578124002228,0.046167749724805036,0.19509412148028354
0.271,0.03673062118695094,0.117605420751065,0.08190980246291944,0.13504031673062736,0.3656720321237199,0.13459121255710013,0.12555342757993088,0.13322882816030834,0.06887188406531622,0.07161259102215743,0.04619841228729769,0.19547923588512714
0.272,0.036800918176336135,0.11875642460096111,0.08216397811779494,0.133204954660236,0.3719622968913248,0.13242613154039373,0.12535562139426684,0.13340976736013124,0.06910161809559828,0.07084936081805492,0.04625777821589123,0.19587294384474793
0.273,0.03686353059103003,0.11987769904096715,0.08240711369263254,0.13137920271086323,0.37825944543285384,0.13027387120749856,0.12515623866670236,0.13358917140183363,0.06933133973741315,0.07007638914122266,0.04634485516414415,0.19627489308551493
0.274,0.03691858801129111,0.12096853725645731,0.08263924240422917,0.12956337723328556,0.3845617026513478,0.12813543437105296,0.12495563324803789,0.1337675316976118,0.06956095269475518,0.06929400051683621,0.04645864015804785,0.19668468201569794
0.275,0.036966227939918724,0.12202829516201319,0.08286041665976333,0.12775778617809383,0.39086734420094943,0.1260118073983417,0.12475413925231799,0.13394533074232431,0.06979035533215643,0.06850254424186936,0.0465981206723368,0.1971018605378608
0.276,0.037006595380098886,0.1230563921834939,0.08307070777693727,0.12596272931031754,0.3971746977567872,0.12390395971194648,0.12455207044675697,0.13412304111483275,0.07001944077815372,0.06770239313393454,0.046762275713159496,0.1975259310208642
0.277,0.0370398424056384,0.12405231197846116,0.08327020567112273,0.1241784984190654,0.40348214403325366,0.12181284328591759,0.12434971968746214,0.13430112450742998,0.07024809703908354,0.06689394227146475,0.04695007690589768,0.19795634942982548
0.278,0.037066127724616274,0.1250156030964081,0.08345901850999249,0.12240537752218703,0.40978811755624933,0.1197393921374494,0.1241473584032001,0.13448003078717732,0.07047620712372911,0.06607760772774544,0.047160489586994335,0.19839252661175183
0.279,0.03708561623760032,0.12594587958020156,0.08363727233611734,0.12064364306597157,0.4160911071968403,0.11768452181362458,0.12394523612909569,0.13466019709263546,0.07070364917937234,0.06525382530122965,0.04739247389876412,0.1988338297338584
0.28,0.03709847859165354,0.12684282150989465,0.08380511065804225,0.11889356411975707,0.4223896564758981,0.1156491288725469,0.12374358009186777,0.13484204696920205,0.07093029663980338,0.06442304924456548,0.047644985886231485,0.19927958387092276
0.281,0.03710489073141492,0.12770617548992227,0.0839626940103286,0.11715540256516552,0.42868236365128565,0.11363409035811434,0.12354259484788115,0.1350259895458865,0.07115601838574218,0.06358575099472959,0.047916978595078416,0.19972907373732823
0.282,0.037105033448528356,0.12853575508038295,0.08411019948323442,0.11542941327934335,0.43496788160009164,0.11164026326778916,0.1233424619750567,0.13521241875604076,0.07138067891803507,0.06274241790667452,0.04820740316983464,0.20018154555879483
0.283,0.03709909193064989,0.1293314411729151,0.08424782022279616,0.11371584431130657,0.4412449175084623,0.10966848401305607,0.12314333981948944,0.135401712604171,0.07160413854380464,0.06189355199285424,0.04851520995153196,0.2006362090780987
0.284,0.037087255311223304,0.1300931823112848,0.08437576490238069,0.11201493705018478,0.44751223238084215,0.10771956787263932,0.12294536329750186,0.1355942324805816,0.07182625357563424,0.061039668670956906,0.048839349574125106,0.20109223968853807
0.285,0.03706971622110324,0.1308209949564678,0.08449425716694522,0.11032692638394093,0.4537686403796129,0.10579430843902297,0.12274864375377126,0.1357903225253008,0.07204687654368946,0.06018129552201864,0.04917877405903467,0.2015487806882753
0.286,0.037046670343126725,0.13151496369553137,0.08460353505153083,0.10865204084702768,0.46001300800521866,0.10389347705930592,0.12255326887610316,0.1359903090424413,0.07226585642059184,0.05931897106104484,0.04953243790718719,0.20200494564821195
0.287,0.0370183159706557,0.1321752413931986,0.08470385037573301,0.10699050275545682,0.4662442531261152,0.1020178222720577,0.12235930266732173,0.13619449996601854,0.07248303885877291,0.058453243522109496,0.04989929918788191,0.2024598208854881
0.288,0.03698485357116443,0.1328020492845557,0.08479546811609988,0.10534252832793296,0.47246134386735983,0.1001680692423548,0.12216678547475729,0.13640318437817506,0.07269826644002206,0.057584669659804945,0.05027832062371573,0.20291246803416405
0.289,0.03694648535587045,0.13339567700692012,0.08487866575851422,0.1037083277920148,0.47866329736633934,0.0983449191976735,0.1219757340778281,0.13661663208074037,0.07291137893692985,0.05671381356881361,0.05066847067075579,0.2033619267040741
0.29,0.036903414856410924,0.13395648256859946,0.08495373263272638,0.10208810547462256,0.48484917840413,0.0965490488676582,0.12178614183423503,0.1368350932210481,0.07312221358598517,0.055841245523307846,0.05106872459308254,0.2038072172182396
0.291,0.036855846509430835,0.13448489225188381,0.08502096923132245,0.10048205987661436,0.49101809792116646,0.09478110993098836,0.12159797888522766,0.137058797972951,0.07333060537209948,0.05496754083779392,0.05147806553073715,0.204247343418828
0.292,0.03680398524987837,0.13498140044732093,0.08508068651543053,0.09889038373154259,0.49716921142628234,0.09304172847272532,0.12141119242031687,0.1372879562739029,0.07353638732436303,0.05409327875099451,0.05189548556008775,0.20468129553133887
0.293,0.03674803611374753,0.13544656941600772,0.08513320520941693,0.09731326404912793,0.5033017173086048,0.09133150445552299,0.12122570700161081,0.13752275761891092,0.07373939082287953,0.0532190413342825,0.05231998674555673,0.20510805307660818
0.294,0.03668820385096038,0.13588102897642287,0.08517885508666226,0.0957508821442991,0.5094148550617899,0.08965101120800849,0.12104142494788979,0.1377633709119883,0.07393944591652504,0.05234541242609497,0.05275058218158244,0.2055265878203165
0.295,0.03662469254909312,0.1362854761122264,0.08521797424835043,0.09420341365288352,0.5155079034297004,0.08800079493338972,0.12085822677829154,0.1380099443756368,0.07413638165148556,0.051472976593667744,0.05318629702362947,0.20593586674982672
0.296,0.036557705268739235,0.1366606744974589,0.08525090839717288,0.09267102853507642,0.5215801784822036,0.08638137424105585,0.12067597171532878,0.13826260551871555,0.07433002641031772,0.050602318123268174,0.0536261695069901,0.2063348550683916
0.297,0.03648744369128907,0.13700745393584457,0.08527801010783213,0.09115389106766052,0.527631031629175,0.0847932397036505,0.12049449824666532,0.13852146116296793,0.07452020826118493,0.04973402003996864,0.05406925195201425,0.20672251919677706
0.298,0.036414107780023436,0.13732670971121833,0.08529963809634025,0.08965215982573642,0.5336598475802272,0.08323685344183496,0.12031362474480725,0.13878659752832978,0.07470675531675502,0.048868663157817,0.05451461175441897,0.20709782977226682
0.299,0.03633789545535585,0.13761940184666174,0.08531615649008208,0.0881659876545469,0.539666042257031,0.08171264873869284,0.12013315014356268,0.13905808037707784,0.07488949610208534,0.04800682516115288,0.05496133235921396,0.20745976463494709
0.3,0.03625900228507553,0.13788655427046123,0.0853279341005937,0.08669552163179967,0.5456490606646259,0.08022102968552318,0.11995285466976721,0.13933595521678419,0.07506825993071742,0.0471490797176804,0.05540851421679518,0.2078073117913465
0.301,0.036177621190347446,0.13812925388761957,0.08533534370092011,0.08524090302085356,0.5516083747281221,0.07876237086049291,0.11977250062855548,0.13962024756198155,0.07524287728803777,0.04629599562383338,0.055855275719766874,0.20813947234596514
0.302,0.03609394216812485,0.13834864955624773,0.08533876130924929,0.08380226721498464,0.5575434811015305,0.07733701704141838,0.11959183324022855,0.13991096325436622,0.07541318022091809,0.0454481359828555,0.05630075411902139,0.2084552633919027
0.303,0.036008152030519706,0.1385459509688998,0.0853385654804719,0.08237974367287317,0.5634538989560807,0.07594528295370177,0.11941058152660501,0.1402080888413012,0.07557900273260006,0.04460605741593139,0.056744106417616284,0.20875372085255825
0.304,0.03592043416155613,0.13872242743953284,0.08533513660716896,0.08097345584528026,0.5693391677557469,0.07458745305430163,0.11922845924455995,0.14051159201220256,0.07574018118182857,0.043770309306665325,0.05718451024095978,0.20903390226696028
0.305,0.03583096829160877,0.13887940659732517,0.08532885623153,0.0795835210927663,0.5751988450280096,0.07326378135242967,0.11904516586421363,0.1408214220921903,0.0758965546853081,0.04294143307909443,0.05762116468170281,0.20929488951165404
0.306,0.035739930289717524,0.13901827298918162,0.08532010636968984,0.07821005059414447,0.5810325041379972,0.07197449126761947,0.11886038758891652,0.1411375105921282,0.0760479655226121,0.04211996150937326,0.05805329111771267,0.20953579145218162
0.307,0.035647491973879654,0.13914046659330204,0.08530926884989151,0.0768531492452579,0.5868397320742682,0.07071977552575953,0.11867379841387554,0.14145977181404149,0.07619425954267886,0.04130641807113424,0.0584801340013919,0.20975574651699033
0.308,0.03555382093927469,0.13924748124668807,0.08529672466587229,0.07551291554765398,0.5926201272544005,0.069499796093701,0.11848506122003298,0.14178810351077176,0.07633528657102812,0.04050131631439342,0.05890096161862181,0.20995392518619543
0.309,0.03545908040430803,0.13934086298973294,0.08528285334673955,0.07418944148675832,0.5983732973581772,0.06831468415308395,0.11829382889969864,0.14212238759867754,0.07647090081676777,0.03970515927772345,0.059315066815512636,0.21012953238705095
0.31,0.035363429074224385,0.1394222083312189,0.08526803234448814,0.07288281239936815,0.6040988571954878,0.06716454011397094,0.11809974551034141,0.14246249092199076,0.07660096127838353,0.038918438933302456,0.05972176769109858,0.21028180978736197
0.311,0.03526702102198137,0.1394931624372313,0.08525263644011238,0.07159310683056672,0.6097964266150571,0.06604943366885081,0.11790244745289186,0.1428082660673099,0.07672533214727333,0.0381416356643019,0.06012040825397928,0.21041003797760532
0.312,0.03517000558601793,0.13955541724761406,0.08523703716905941,0.07032039638045492,0.6154656284588081,0.0649694038874617,0.11770156467082918,0.14315955222643964,0.07684388320794343,0.037375217773991984,0.060510359040793806,0.21051353853234947
0.313,0.03507252728447339,0.1396107095235827,0.0852216022665192,0.06906474554134426,0.6211060865654953,0.06392445935282763,0.11749672186620583,0.14351617610551565,0.07695649023370178,0.036619641025821055,0.06089101769432105,0.21059167594146652
0.314,0.034974725745398144,0.1396608188300745,0.08520669513282335,0.06782621152625337,0.6267174238262659,0.06291457833878916,0.1172875397285859,0.14387795287797903,0.07706303537656564,0.03587534821365075,0.06126180949893645,0.21064385940172298
0.315,0.03487673565241627,0.13970756545619498,0.0851926743190315,0.06660484408972017,0.6322992602940548,0.06193970902918563,0.1170736361726919,0.1442446871786148,0.07716340754999736,0.035142768761232915,0.061622187871132716,0.21066954445944455
0.316,0.03477868670524743,0.13975280827700282,0.08517989303259496,0.06540068534216165,0.6378512113478543,0.06099976977870853,0.11685462758037482,0.14461617413545103,0.07725750280293857,0.03442231834999039,0.061971634802844386,0.21066823449513264
0.317,0.0346807035944731,0.1397984425595933,0.08516869866286463,0.06421376955913355,0.643372885911854,0.060094649415254366,0.1166301300425233,0.14499220043589137,0.07734522468350041,0.03371439857413445,0.062309661255471986,0.2106394820411564
0.318,0.03458290598987449,0.13984639771613752,0.08515943232610333,0.0630441229870189,0.6488638847282284,0.059224207583467234,0.1163997605966799,0.14537254542310124,0.07742648459053518,0.03301939662220163,0.06263580750262689,0.2105828899243462
0.319,0.03448540854170617,0.13989863500617478,0.08515242842956107,0.06189176364691364,0.6543237986812604,0.05838827512890927,0.11616313845632427,0.14575698221823188,0.07750120211124076,0.03233768498416887,0.06294964341988421,0.21049811222672224
0.32,0.034388320894247044,0.13995714519007746,0.08514801425415493,0.06075670113859687,0.6597522071699347,0.05758665452212428,0.11591988622800263,0.14614527886370604,0.07756930534284386,0.03166962118338063,0.06325076872001877,0.2103848550599421
0.321,0.0342917477110222,0.14002394613527944,0.08514650955518363,0.059638936446602,0.6651486765262785,0.056819120321652365,0.11566963111271245,0.14653719948239005,0.07763073119635594,0.03101554753262094,0.0635388131324952,0.2102428771520464
0.322,0.03419578871106186,0.14010108037667415,0.08514822618056014,0.05853846175034688,0.670512758477244,0.05608541967488157,0.11541200608816185,0.14693250544702635,0.07768542568041727,0.03037579091370742,0.06381343652638395,0.21007199024813528
0.323,0.0341005387156163,0.1401906126323768,0.08515346770593785,0.05745526024022383,0.6758439886486778,0.05538527285546724,0.11514665106862107,0.14733095655390407,0.0777333441632131,0.02975066258003034,0.06407432897624032,0.20987205932918085
0.324,0.034006087704665816,0.14029462727592024,0.08516252908618399,0.05638930594139595,0.681141885110537,0.054718373835921395,0.11487321403909763,0.14773231219433353,0.07777445161053756,0.029140457981504213,0.06432121077098987,0.20964300265479738
0.325,0.03391252088255294,0.1404152257658371,0.08517569632261694,0.05534056354696031,0.6864059469629086,0.05408439089382695,0.11459135216046892,0.14813633251712316,0.07780872279809764,0.028545456611393828,0.06455383236622024,0.20938479163650175
0.326,0.0338199187520384,0.14055452403343432,0.08519324614549054,0.054308988262043015,0.6916356529625127,0.05348296724999748,0.11430073284229827,0.14854277957502784,0.07783614249630133,0.02796592187451609,0.06477197428067379,0.2090974505480989
0.327,0.033728357195999106,0.14071464982940787,0.0852154457112795,0.05329452566031706,0.6968304601894403,0.05291372173681553,0.11400103478028882,0.14895141844787377,0.07785670562596264,0.027402100976271954,0.06497544693789305,0.20878105607968472
0.328,0.03363790756599784,0.1408977400297354,0.08524255231428811,0.05229711155435601,0.7019898027545599,0.052376249494909634,0.11369194895570008,0.1493620183350562,0.07787041738374646,0.026854224832016188,0.06516409045414163,0.20843573674152607
0.329,0.03354863677690849,0.14110593790115286,0.08527481311209835,0.05131667188116538,0.7071130905495728,0.05187012269647243,0.11337317959445972,0.14977435361012822,0.07787729333645262,0.026322507996315095,0.06533777437376667,0.20806167212395293
0.33,0.033460607406853346,0.1413413903265977,0.08531246486435874,0.050353122604127644,0.7121997080438921,0.05139489129359192,0.11304444508407041,0.1501882048305735,0.07787735948357248,0.02580714861166937,0.06549639735332981,0.2076590920194809
0.331,0.033373877801777675,0.14160624499134897,0.0853557336844897,0.049406369632526786,0.7172490131346443,0.050950083790225364,0.11270547884678285,0.15060335969642974,0.07787065228774256,0.02530832837631741,0.06563988679584558,0.2072282754136036
0.332,0.03328850218406386,0.1419026475310239,0.0854048348039401,0.04847630875968495,0.7222603360576962,0.05053520803651297,0.11235603016779377,0.1510196139523102,0.07785721867300567,0.024826212530769127,0.06576819843660522,0.20676954935114358
0.333,0.03320453076462314,0.14223273864321023,0.08545997234866219,0.04756282562073263,0.7272329783689424,0.05014975204428572,0.11199586497746174,0.15143677222840718,0.07783711599091665,0.02436094986277359,0.0658813158820628,0.20628328768535098
0.334,0.033122009857896706,0.1425986511651234,0.0855213391274564,0.04666579567086243,0.732166212006605,0.04979318482268279,0.11162476658675134,0.15185464881711405,0.07781041195476016,0.02391267273044658,0.06597925010333125,0.20576990971717232
0.335,0.033040981999170486,0.14300250712032947,0.0855891164317141,0.045785084184885624,0.7370592784471347,0.049464957232832146,0.11124253637522485,0.1522730683827381,0.07777718454231607,0.02348149710331039,0.06606203888590005,0.2052298787320695
0.336,0.03296148606363858,0.1434464147379025,0.08566347384601948,0.044920546278720885,0.7419113879688717,0.049164502860627915,0.11084899443084398,0.1526918666025229,0.07773752186792479,0.023067522620946822,0.06612974623729695,0.2046637004416185
0.337,0.03288355738662841,0.14393246544746383,0.0857445690688648,0.04407202695335422,0.7467217190386368,0.04889123890664734,0.11044398014075629,0.15311089073797926,0.07769152202494997,0.02267083266899297,0.06618246175450332,0.2040719213369902
0.338,0.03280722788444646,0.1444627308534818,0.08583254774266853,0.04323936116165907,0.7514894178366164,0.04864456709224426,0.110027352732127,0.1535300001362888,0.07763929290005357,0.022291494472103664,0.0662202999531347,0.20345512696125528
0.339,0.032732526175282696,0.14503925969226,0.08592754329216262,0.04242237389836148,0.7562135979344717,0.048423874580808476,0.10959899176198595,0.15394906666220248,0.07758095196092556,0.021929559203537098,0.06624339956053299,0.20281394010737164
0.34,0.032659477699626974,0.1456640747752576,0.08602967677024165,0.0416208803133479,0.760893340140965,0.04822853491305872,0.10915879755508459,0.15436797506142944,0.0775166260193122,0.02158506211095847,0.06625192277510773,0.20214901894873977
0.341,0.03258810483955093,0.1463391699227346,0.08613905671048994,0.04083468584842022,0.7655276925284822,0.048057908955113714,0.10870669158881409,0.15478662325693557,0.07744645097123652,0.021258022658062554,0.0662460544944546,0.2014610551094379
0.342,0.03251842703625752,0.14706650689211176,0.08625577898594716,0.040063586397556465,0.7701156706526059,0.04791134585796787,0.10824261682444561,0.15520492257981405,0.07737057151630693,0.020948444681633913,0.06622600151493842,0.2007507716815717
0.343,0.03245046090531682,0.14784801230586575,0.08637992667391815,0.039307368490649114,0.7746562579753429,0.04778818402686758,0.10776653798415177,0.15562279793642209,0.07728914085792585,0.020656316563620877,0.06619199170562409,0.20001892119742176
0.344,0.032384220349154495,0.1486855745842851,0.08651156992697315,0.038565809500591554,0.7791484065011158,0.04768775209903592,0.10727844177360439,0.15604018791328028,0.07720232038614701,0.02038161141781025,0.06614427315955707,0.1992662835640747
0.345,0.03231971666657549,0.1495810408889725,0.0866507658503242,0.03783867787351709,0.783591037632997,0.04760936992812781,0.10677833705025908,0.156457044821149,0.07711027934482786,0.020124287290633317,0.06608311332547742,0.19849366396821713
0.346,0.03225695865928182,0.15053621408345896,0.08679755838600135,0.03712573338185809,0.7879830432549678,0.047552349573722424,0.10626625493779855,0.15687333467953749,0.07701319448470924,0.01988428737565326,0.06600879812304893,0.19770189075866348
0.347,0.032195952735451616,0.1515528497175328,0.08695197820432002,0.036426727399817456,0.792323287043865,0.04751599629408664,0.10574224888742355,0.15728903714295,0.0769112497040135,0.019661540241256777,0.06592163104456633,0.19689181331410402
0.348,0.03213670301053613,0.15263265304209037,0.08711404260335795,0.03574140320079198,0.7966106060122887,0.04749960954038289,0.10520639468679888,0.15770414537017463,0.07680463567814794,0.019455960071053383,0.06582193224603405,0.19606429990344226
0.349,0.032079211405386464,0.15377727606141217,0.08728375541722845,0.035069496276204905,0.8008438122812229,0.04750248395045104,0.10465879041745219,0.15811866583804732,0.0766935494800617,0.01926744691650084,0.06571003763026591,0.1952202355459569
0.35,0.03202347774186013,0.15498831462978,0.0874611069340367,0.034410734675185094,0.805021695078407,0.04752391034037317,0.10409955636134627,0.15853261810127672,0.07657819419269664,0.019095886961238418,0.06558629792457255,0.19436051987840455
0.351,0.03196949983604756,0.1562673055991563,0.08764607382446915,0.0337648393645133,0.809143022955975,0.04756317669208143,0.1035288348573557,0.15894603450003625,0.07645877851488268,0.0189411527966269,0.0654510777553702,0.19348606503598045
0.352,0.03191727358925011,0.15761572402431895,0.08783861908204277,0.03313152460826513,0.8132065462185434,0.047619569135457125,0.1029467901083269,0.15935895981722142,0.07633551636194613,0.018803103707991146,0.06530475472188514,0.19259779355375967
0.353,0.03186679307679641,0.15903498043147193,0.08803869197594028,0.03251049836659856,0.817210999551124,0.047692372923545036,0.10235360793950844,0.15977145088746533,0.07620862646215763,0.018681585971081573,0.06514771847092765,0.19169663629484562
0.354,0.031818050634721116,0.16052641815601632,0.08824622801731376,0.03190146271315021,0.8211551048348443,0.0477808733996854,0.10174949550919805,0.1601835761603979,0.07607833195013519,0.01857643315830131,0.0649803697745327,0.1907835304110456
0.355,0.03177103694428637,0.16209131075489855,0.0884611489397118,0.031304114270523174,0.8250375741373235,0.047884356955551904,0.10113468097266408,0.16059541522086115,0.07594485995823769,0.018487466454248137,0.06480311961205769,0.18985941734142908
0.356,0.03172574111427975,0.16373085949872557,0.08868336269422177,0.030718144663306562,0.8288571128637571,0.048002111979158636,0.10050941310071042,0.16100705826915326,0.07580844120698893,0.018414494980171177,0.06461638825822247,0.1889252408536202
0.357,0.031682150761063656,0.16544619094858087,0.0889127634598179,0.030143240988033518,0.8326124230541254,0.04813342979195376,0.09987396085462066,0.16141860556443421,0.07566930959550836,0.018357316126910914,0.06442060437836566,0.18798194513203376
0.358,0.03164025208638927,0.16723835462226433,0.0891492316693787,0.029579086299503832,0.8363022068115745,0.04827760557407716,0.0992286129196549,0.16183016683451004,0.07552770179282947,0.01831571589592266,0.06421620413214515,0.18703047291666566
0.359,0.03160002995305211,0.1691083207544606,0.08939263405181015,0.02902536011286363,0.8399251698467204,0.048433939276750694,0.09857367719959569,0.16224186065503954,0.0753838568310105,0.018289469247911704,0.06400363028671734,0.186071763695434
0.36,0.0315614679585143,0.17105697815509308,0.08964282369070972,0.028481738920821644,0.8434800251222333,0.04860173652068711,0.09790948027498367,0.1626538138011057,0.07523801570092713,0.018278340458621666,0.06378333134046467,0.18510675195270365
0.361,0.031524548506694484,0.17308513216978974,0.08989964010010008,0.027947896725381467,0.8469654965815141,0.048780309479298345,0.09723636682772763,0.1630661605738847,0.07509042095176685,0.018282083481254263,0.06355576065825487,0.1841363654763474
0.362,0.03148925287811136,0.17519350274597223,0.09016290931782309,0.027423505583421458,0.8503803229447322,0.04896897774545007,0.09655469903473163,0.16347904210505132,0.07494131629532451,0.01830044231502178,0.0633213756193361,0.18316152372550124
0.363,0.03145556129863498,0.17738272260762009,0.0904324440173261,0.02690823616542132,0.8537232615550467,0.049167069180452924,0.09586485593325206,0.1638926056415268,0.07479094621625901,0.01833315137936592,0.06308063677895687,0.18218313626097815
0.364,0.03142345300703722,0.17965333554123217,0.09070804363859303,0.026401758326540924,0.8569930922575745,0.04937392074393538,0.0951672327607111,0.16430700381310043,0.07463955558949434,0.018379935893376893,0.06283400704497044,0.1812021012400563
0.365,0.03139290632151847,0.18200579479499393,0.0909894945390087,0.02590374168922652,0.8601886212936043,0.049588879303237354,0.09446224027173161,0.16472239388546428,0.07448738930584844,0.01844051226001602,0.06258195087071361,0.1802193039771153
0.366,0.031363898705348656,0.18444046159259245,0.09127657016498533,0.02541385623640643,0.8633086851924063,0.04981130242094128,0.09375030403505132,0.16513893700102733,0.07433469190689883,0.018514588454722352,0.06232493346552374,0.17923561557139386
0.367,0.031336406831728995,0.18695760376255421,0.09156903124515431,0.02493177291433296,0.8663521546423081,0.05004055911916155,0.09303186371280008,0.16555679740971166,0.07418170722993746,0.01860186441801323,0.062063420024245,0.1782518916029555
0.368,0.03131040664801912,0.18955739448346218,0.09186662600581884,0.024457164244057587,0.8693179383216207,0.05027603061923157,0.09230737232447725,0.16597614169165126,0.07402867806378163,0.018702032451646127,0.06179787497699425,0.17726897089780513
0.369,0.031285873439445784,0.19223991114495392,0.09216909040919376,0.02398970494052009,0.8722049866690086,0.05051711105541584,0.0915772954977761,0.1663971379735068,0.0738758458160274,0.018814777617938698,0.06152876126035027,0.17628767436287587
0.37,0.03126278189242141,0.19500513432430172,0.09247614841483921,0.023529072538137633,0.8750122955725165,0.05076320816126707,0.09084211070832642,0.16681995514000994,0.07372345019222584,0.018939778141763345,0.06125653961104156,0.17530880389121192
0.371,0.03124110615754209,0.19785294687838426,0.0927875122645687,0.02307494802173322,0.8777389099567929,0.0510137439272684,0.09010230651025253,0.1672447620425882,0.07357172888738794,0.019076705814742523,0.06098166788309409,0.17433314133726283
0.372,0.03122081991231709,0.2007831331511836,0.09310288279105743,0.022627016461568804,0.8803839272487187,0.05126815522841138,0.08935838175936452,0.16767172670720756,0.07342091729015876,0.019225226401146985,0.06070460038924458,0.1733614475617212
0.373,0.031201896423613658,0.20379537829723873,0.09342194975029099,0.022184967651206217,0.882946500703118,0.05152589442044334,0.08861084483067505,0.1681010155439884,0.07327124820004281,0.01938500004499601,0.060425787267319085,0.17239446154496704
0.374,0.031184308609804055,0.20688926772162328,0.09374439217790372,0.021748496746912416,0.8854258425724503,0.05178642990359413,0.08786021283189209,0.16853279256142883,0.07312295155800867,0.019555681677874918,0.060145673872157204,0.171432899567877
0.375,0.0311680291025235,0.21006428663696988,0.09406987876932149,0.02131730490731792,0.8878212271074546,0.052049246652702184,0.08710701081458362,0.16896721858837058,0.07297625419072051,0.019736921426960118,0.059864700193544895,0.17047745445866433
0.376,0.031153030307922793,0.21331981973766076,0.09439806828359619,0.020891099932087386,0.8901319933792351,0.05231384671280511,0.08635177098467418,0.16940445050699054,0.0728313795685055,0.019928365022772503,0.059583300300546094,0.1695287949044378
0.377,0.0311392844672417,0.21665515099087373,0.09472860997071454,0.02046959689836663,0.892357547916885,0.05257974965940261,0.08559503191388779,0.16984464050020306,0.07268854757699693,0.020129654206135314,0.05930190181250582,0.1685875648262873
0.378,0.031126763716518333,0.22006946354377663,0.09506114402211906,0.020052518793823734,0.8944973671578255,0.052846493022752676,0.08483733775366543,0.1702879353167262,0.07254797430224594,0.02034042713384416,0.05902092539689444,0.16765438281673398
0.379,0.03111544014524111,0.2235618397459059,0.09539530204410476,0.019639597145134403,0.8965509997096633,0.05311363267573593,0.08407923745291593,0.17073447555692844,0.07240987182893405,0.020560318782531947,0.05874078429406471,0.16672984163831014
0.38,0.031105285853810744,0.2271312612855511,0.09573070755368562,0.019230572640823698,0.8985180684227557,0.053380743184966585,0.08332128398082524,0.17118439498237356,0.07227444805125434,0.02078896135019613,0.058461883868825885,0.16581450778182827
0.381,0.03109627300966435,0.2307766094387603,0.09606697649643701,0.018825195747386097,0.9003982722723963,0.05364741812493447,0.0825640335557564,0.17163781985183466,0.07214190649599156,0.021025984654783014,0.05818462118866567,0.16490892108257096
0.382,0.03108837390195308,0.23449666542921668,0.09640371778567972,0.01842322731767537,0.9021913880493101,0.05391327035513942,0.08180804488106766,0.17209486828640666,0.07201244615725895,0.02127101652920959,0.057909384628345745,0.16401359439233956
0.383,0.031081560994626594,0.23829011089685462,0.09674053386219357,0.018024439190527434,0.9038972718569825,0.0541779322602232,0.08105387838846534,0.17255564966616024,0.0718862613423213,0.021523683212123085,0.05763655350051906,0.16312901330488114
0.384,0.031075806977724295,0.24215552847261596,0.09707702127347834,0.0176286147806023,0.9055158604142794,0.05444105595314793,0.08030209548926821,0.17302026406059962,0.07176354152780418,0.02178360973370915,0.05736649771195139,0.16225563593193865
0.385,0.0310710848166637,0.24609140245643246,0.09741277127135205,0.017235549657413706,0.9070471721619209,0.054702313441407975,0.07955325783379352,0.17348880169502962,0.07164447122548957,0.02205042029579017,0.057099577444817015,0.1613938927269005
0.386,0.031067367799240003,0.2500961195953573,0.0977473704264594,0.016845052112530342,0.9084913081715622,0.054961396756194936,0.0788079265788621,0.17396134245471936,0.07152922985680478,0.02232373864552685,0.056836142862408505,0.16054418635282744
0.387,0.031064629580058768,0.2541679699587912,0.09808040125810358,0.01645694371396838,0.9098484528561491,0.055218018044412405,0.07806666166331741,0.1744379554285083,0.07141799163501626,0.02260318844203401,0.05657653383859485,0.15970689159162565
0.388,0.031062844222090786,0.2583051479078334,0.09841144287767795,0.0160710598467994,0.9111188744798195,0.05547190962346446,0.07733002109125642,0.17491869849319452,0.07131092545407039,0.02288839361537706,0.05632107971032116,0.15888235529127298
0.389,0.03106198623505576,0.2625057531558695,0.09874007164393818,0.015687250239055386,0.9123029254650042,0.05572282399883417,0.07659856022259051,0.17540361793977638,0.07120819478295923,0.02317897871744051,0.05607009905255137,0.15807089634838511
0.39,0.031062030610304398,0.26676779191750977,0.09906586182843242,0.015305379472008133,0.913401042493857,0.05597053384465106,0.07587283107054787,0.17589274814245487,0.07110995756449107,0.02347456926425444,0.055823899475002874,0.15727280572384875
0.391,0.031062952851896843,0.2710891781431287,0.09938838628936585,0.014925327473895994,0.9144137464005402,0.056214831947576746,0.07515338160578972,0.17638611127112033,0.0710163661173027,0.023774792069440966,0.05558277744007641,0.1564883464896777
0.392,0.031064729003575205,0.27546773483624043,0.09970721715222595,0.014546989996194975,0.9153416418499372,0.056455531114484814,0.07444075506706907,0.17688371704787123,0.07092756704002041,0.024079275568461206,0.05534701810130536,0.15571775390559872
0.393,0.03106733567134455,0.27990119545103287,0.10002192649544313,0.014170279071512455,0.9161854167970054,0.056692464044476025,0.07373548927858725,0.17738556254783408,0.07084370111651841,0.024387650133411636,0.05511689516165918,0.15496123552425653
0.394,0.031070750041441553,0.2843872053672661,0.10033208703926558,0.013795123452252714,0.9169458417195964,0.05692548316587791,0.07303811597447085,0.1778916320442112,0.07076490322136976,0.02469954837815693,0.054892670750956725,0.15421897132447374
0.395,0.03107494989346812,0.28892332343963595,0.10063727283593855,0.013421469029242357,0.9176237686162096,0.05715446043904677,0.07234916013102681,0.1784018968971263,0.07069130222468217,0.025014605453600323,0.054674595321582864,0.15349111387281444
0.396,0.031079913608582407,0.2935070236184544,0.10093705995904892,0.013049279229563653,0.9182201297596334,0.05737928712592324,0.07166913930752095,0.17891631548538217,0.07062302089557197,0.02533245933288934,0.05446290756161312,0.15277778851458673
0.397,0.031085620172698263,0.29813569663833356,0.10123102718972893,0.012678535392919778,0.9187359361985804,0.05759987352756506,0.07099856299634193,0.17943483317993644,0.07056017580353209,0.025652751086353814,0.05425783432442234,0.15207909359601005
0.398,0.03109204917473988,0.3028066517715862,0.1015187566973022,0.01230923712588752,0.919172276003232,0.0578161486910361,0.07033793198343848,0.17995738235752604,0.07050287721694602,0.025975125145923858,0.054059590573861484,0.1513951007195392
0.399,0.03109918080004834,0.3075171186434241,0.10179983471195404,0.01194140263350211,0.9195303122561789,0.05802806008727104,0.06968773771986872,0.18048388245268684,0.07045122899811879,0.02629922955877905,0.053868379344128525,0.15072585503419117
0.4,0.031106995819053122,0.3122642491066072,0.10207385218712614,0.011575069027605802,0.9198112807963522,0.0582355732617261,0.06904846170526074,0.18101424004630257,0.07040532849430411,0.026624716229945194,0.0536843917135295,0.15007137556249986
0.401,0.031115475571303085,0.3170451191739872,0.10234040544948415,0.01121029261145699,0.9200164877285834,0.0584386714597158,0.06842057488395452,0.1815483489888654,0.07036526642443579,0.02695124115359726,0.05350780679134699,0.14943165556549357
0.402,0.03112460194493082,0.3218567310081461,0.10259909683441491,0.010847149140065229,0.9201473067147645,0.05863735522833063,0.06780453705470128,0.182086090556708,0.07033112676146934,0.02727846463278724,0.05333879171707186,0.1488066629468953
0.403,0.031134357351630837,0.3266960149678996,0.10284953530520362,0.010485734055753282,0.92020517606442,0.05883164199684339,0.06720079629493238,0.18262733363954553,0.07030298661045069,0.02760605148734348,0.05317750167120238,0.14819634069755716
0.404,0.03114472469722435,0.3315598317117682,0.10309133705405966,0.010126162698409361,0.9201915956431033,0.059021565637377475,0.06660978840080344,0.1831719349578364,0.07028091608256695,0.02793367124966995,0.053024079896816775,0.1476006073808601
0.405,0.031155687347988945,0.33644497435865195,0.10332412608320354,0.009768570489938311,0.9201081236169885,0.05920717600762493,0.06603193634429343,0.1837197393086557,0.07026497816556414,0.028260998348150886,0.052878657731106886,0.1470193576594242
0.406,0.031167229093060616,0.341348170705976,0.10354753476419339,0.009413113092353173,0.9199563730516658,0.059388538477370606,0.06546764974868091,0.1842705798391062,0.07025522859095994,0.028587712277863008,0.052741354646188676,0.14645246286303712
0.407,0.031179334103279905,0.34626608550535776,0.10376120437379449,0.00905996653904086,0.9197380083829337,0.059565733440536166,0.06491732438360831,0.1848242783465063,0.0702517156986495,0.028913497758308444,0.05261227829867739,0.1458997715971981
0.408,0.03119198688698423,0.3511953227956605,0.1039647856048076,0.008709327338727068,0.9194547417771123,0.05973885581450659,0.06438134168086221,0.1853806456048139,0.07025448029949184,0.02923804487793033,0.05249152458769193,0.14536111039112948
0.409,0.03120517224325605,0.3561324282934624,0.10415793905043202,0.008361412551760015,0.9191083293978709,0.059908014528375,0.06386006827179778,0.1859394817169205,0.07026355553662575,0.029561049225260046,0.052379177721111954,0.144836284383614
0.41,0.031218875213171394,0.3610738918416415,0.10434033566096937,0.008016459838353317,0.9187005675958358,0.060073332001727084,0.06335385554715076,0.18650057649256013,0.07027896674638386,0.029882212006684103,0.05227531028999242,0.14432507804448858
0.411,0.03123308102957471,0.3660161499178301,0.10451165717190933,0.007674727478464123,0.9182332890366133,0.06023494361549314,0.06286303923983125,0.18706370985167592,0.07030073131992805,0.030201240150950267,0.05217998335107017,0.14382725592920562
0.412,0.031247775065906074,0.3709555882056932,0.10467159650282049,0.007336494362977222,0.9177083587826821,0.06039299717628607,0.062387939031147366,0.18762865225296613,0.07032885856694773,0.030517846400694364,0.05209324651730285,0.14334256346344862
0.413,0.03126294278456975,0.375888544233118,0.10481985812672427,0.007002059955854969,0.9171276703449476,0.06054765237558155,0.0619288581809215,0.1881951651472717,0.07036334958298347,0.030831749391523538,0.052015138056371715,0.14287072775443077
0.414,0.03127856968531365,0.3808113100821519,0.10495615840985455,0.006671744226902003,0.9164931417205511,0.06069908024499012,0.06148608318196762,0.1887630014551627,0.07040419712215418,0.03114267371938303,0.05194568499712438,0.14241145842520184
0.415,0.03129464125398696,0.3857201351756586,0.10508022592172658,0.006345887554761106,0.9158067114342953,0.060847462608809126,0.06105988343954476,0.18933190606791464,0.07045138547708833,0.03145034999714768,0.05188490324394009,0.14196444846787015
0.416,0.031311142912002016,0.39061122914520524,0.10519180171541635,0.006024850599783779,0.9150703346011662,0.06099299153503039,0.06065051097644426,0.1899016163708739,0.07050489036786363,0.031754514901511675,0.051832797699050207,0.14152937511148214
0.417,0.0313280599667221,0.39548076478393746,0.1052906395777572,0.005709014146388604,0.9142859790267748,0.06113586878597396,0.060258200164447405,0.19047186278808767,0.07056467884163925,0.03205491121127343,0.05178936239281169,0.1411059007001019
0.418,0.031345377562901226,0.40032488108738984,0.10537650624909686,0.005398778914564004,0.9134556213611437,0.061276305269679386,0.05988316748274926,0.1910423693469176,0.07063070918452521,0.03235128783816179,0.05175458062185202,0.1406936735767847
0.419,0.03136308063526398,0.4051396863846993,0.10544918161225453,0.005094565340169797,0.9125812433196194,0.061414520493209675,0.05952561130385369,0.1916128542610916,0.07070293084706798,0.03264339985123625,0.05172842509496612,0.14029232896926855
0.42,0.031381153862237283,0.409921261562402,0.10550845885052096,0.004796813323753882,0.9116648279827565,0.06155074201889178,0.05918571170720744,0.19218303053024194,0.0707812843845735,0.0329310084959196,0.051710858086546685,0.1399014898735703
0.421,0.03139958162083418,0.41466566338304883,0.10555414457488263,0.004505981947605865,0.9107083561849503,0.061685204924479146,0.058863630320734626,0.19275260655350396,0.07086570141331373,0.03321388120864429,0.05170183159737862,0.13952076793190257
0.422,0.03141834794269826,0.4193689279007649,0.10558605892101704,0.004222549160847659,0.9097138029992636,0.061818151267979855,0.05855951019024811,0.19332128675413052,0.07095610458349422,0.03349179162805275,0.05170128752260819,0.13914976430166695
0.423,0.031437436471392494,0.4240270739757752,0.1056040356169041,0.003947011432388234,0.9086831343235469,0.06194982955777401,0.05827347567659969,0.19388877221149922,0.07105240756963944,0.03376451960363286,0.051709157826828465,0.13878807051235378
0.424,0.03145683042105299,0.4286361068895186,0.10560792202214331,0.0036798833715936613,0.9076183035704127,0.062080494228445436,0.05800563238028745,0.19445476129622308,0.07115451507887073,0.034031851202590675,0.051725364726259104,0.13843526930722588
0.425,0.0314765125366077,0.4331920220614876,0.10559757914024841,0.0034216973165735434,0.906521248461277,0.0622104051226297,0.057756067093094436,0.19501895030349786,0.07126232287729314,0.034293578715709226,0.05174982087811415,0.13809093546670345
0.426,0.031496465055798166,0.43769080886825074,0.10557288160534858,0.0031730028899805787,0.9053938879223357,0.062339826979119765,0.057524847776210905,0.19558103407938693,0.07137571783458452,0.034549500662881275,0.05178242957727724,0.1377546366106066
0.427,0.031516669673263845,0.44212845456437777,0.10553371764484695,0.0029343665222884953,0.9042381190785818,0.06246902892741077,0.05731202356412056,0.19614070663452945,0.07149457798669137,0.03479942179899198,0.051823084960504806,0.13742593397682623
0.428,0.03153710750696633,0.44650094830416215,0.10547998901970689,0.0027063709425287864,0.903055814340912,0.06259828398890568,0.05711762479343264,0.19669766173978273,0.071618772616413,0.035043153120710206,0.05187167221840415,0.13710438317436066
0.429,0.03155775906725222,0.4508042852622314,0.10541161094413518,0.002489614636499295,0.901848818581117,0.06272786858502724,0.056941663055744614,0.19725159349863322,0.07174816235155759,0.03528051187471419,0.05192806781543947,0.13678953490899348
0.43,0.031578604228809,0.4550344708503435,0.10532851198642397,0.0022847112724609362,0.9006189463902268,0.06285806205250608,0.056784131273617346,0.1978021968917626,0.07188259928032144,0.035511321567755126,0.05199213971823202,0.13648093568018876
0.431,0.03159962220577143,0.4591875250270061,0.10523063395277708,0.0020922890943682174,0.8993679794171175,0.06298914616616404,0.0566450037987931,0.19834916828998958,0.0720219270835556,0.03573541197883007,0.05206374763240143,0.13617812844825464
0.432,0.03162079153017304,0.46325948669579037,0.10511793175597585,0.001912990282647674,0.8980976637862729,0.06312140466946052,0.05652423653182841,0.1988922059327474,0.07216598118356773,0.03595261917370878,0.05214274324819436,0.1358806532716598
0.433,0.031642090033856866,0.46724641818748813,0.10499037327072654,0.0017474702825698658,0.8968097075955631,0.06325512281299714,0.0564217670623507,0.19943101037030922,0.07231458890910045,0.03616278552189395,0.05222897049509888,0.13558804791543527
0.434,0.031663494833921335,0.4711444098203964,0.10484793917745545,0.0015963971002540662,0.8955057784960471,0.06339058690102868,0.05633751482912661,0.19996528486883478,0.07246756967598754,0.036365759716084085,0.052322265805565794,0.1352998484326994
0.435,0.031684982321705905,0.47494958453229663,0.10469062279612754,0.0014604505663980052,0.8941875013558609,0.06352808384590199,0.05627138129916954,0.20049473577798885,0.07262473518295114,0.03656139679407316,0.05242245838788284,0.13501558972211045
0.436,0.031706528155322725,0.47865810257692015,0.10451842991145537,0.001340321567879397,0.8928564560094137,0.06366790073013602,0.05622325016514302,0.20101907286123535,0.07278588962186902,0.03674955816297029,0.05252937050813207,0.13473480606440927
0.437,0.03172810725572798,0.48226616627690166,0.1043313785905759,0.0012367112474542003,0.8915141750920946,0.06381032437581803,0.05619298756050228,0.20153800958917742,0.07295082990181265,0.03693011162553447,0.052642817781086,0.13445703164108178
0.438,0.03174969380629911,0.4857700248242173,0.10412949899402839,0.0011503301718863437,0.8901621419600971,0.063955640920855,0.0561804422918993,0.20205126339640825,0.07311934588609154,0.03710293140838819,0.05276260946988913,0.13418180103786134
0.439,0.03177126125583002,0.4891659791181537,0.10391283318061251,0.0010818974689202206,0.8888017886950007,0.0641041354015655,0.05618544608856852,0.20255855590218988,0.07329122064148257,0.03726789819182651,0.05288854879427289,0.13390864973535732
0.44,0.03179278232478534,0.4924503866299939,0.10368143490649984,0.0010321399335404566,0.8874344941933128,0.06425609134105298,0.05620781386854134,0.2030596130950554,0.07346623069875405,0.037424899141008466,0.053020433247064756,0.1336371145887176
0.441,0.031814229014565265,0.49561966628312315,0.10343536941885587,0.001001791104038981,0.886061582341924,0.06441179034275543,0.05624734402165004,0.20355416548113472,0.07364414632347399,0.037573827938300525,0.05315805491865036,0.13336673429789878
0.442,0.0318355726194969,0.49867030333734236,0.10317471324410771,0.0009915903084147225,0.884684320280876,0.06457151168868346,0.05630381870941917,0.20404194819586288,0.07382473179602436,0.037714584816674085,0.05330120082905719,0.1330970498698167
0.443,0.031856783741193835,0.5015988542665247,0.10289955397088965,0.001002281681718525,0.8833039167549155,0.06473553194201175,0.05637700418199301,0.20452270107848997,0.07400774569966936,0.0378470765941236,0.05344965326724674,0.132827605073344
0.444,0.03187783230496744,0.5044019516194604,0.10260999002758218,0.0010346131550232984,0.8819215205547848,0.0649041245539483,0.05646665111223742,0.20499616870882287,0.07419294121563245,0.03797121670922024,0.05360319013725129,0.13255794688790323
0.445,0.03189868757797164,0.507076308854242,0.10230613045429866,0.001089335416780002,0.880538219048451,0.0650775594749854,0.056572494947096284,0.20546210040557222,0.07438006642425797,0.03808692525809152,0.05376158531071378,0.1322876259461143
0.446,0.031919318188812544,0.5096187251368229,0.10198809466898272,0.0011672008473969202,0.879155036801614,0.06525610277079004,0.056694256276143946,0.20592025018586468,0.07456886461158076,0.038194129033241826,0.05392460898542682,0.13201619697077652
0.447,0.031939692148375436,0.5120260900940369,0.10165601222721335,0.0012689624279122315,0.8777729342857495,0.06544001624304671,0.05683164121709457,0.2063703766857273,0.0747590745808513,0.03829276156469324,0.0540920280493576,0.1317432192062931
0.448,0.03195977687164597,0.5142953885105082,0.1013100225753067,0.0013953726237287943,0.8763928066706292,0.06562955705561788,0.056984341817904294,0.20681224304162377,0.07495043096877976,0.038382763163899804,0.054263606449598094,0.1314682568444278
0.449,0.031979539200285734,0.5164237049579221,0.10095027479645936,0.0015471822444043115,0.875015482696852,0.06582497736639682,0.057152036474930445,0.20724561673364764,0.07514266456636277,0.03846408097080473,0.05443910556560694,0.1311908794441249
0.45,0.03199894542576413,0.5184082283441286,0.10057692735002097,0.0017251392805755121,0.8736417236228015,0.0660265239652825,0.05733439036650227,0.20767026939144648,0.07533550264407052,0.038536669004280724,0.05461828458603438,0.13091066234492998
0.451,0.0320179613128805,0.5202462563689906,0.10019014780435823,0.0019299877191838492,0.8722722222401035,0.06623443791868007,0.05753105590114241,0.20808597656433298,0.07552866928106344,0.038600488216116405,0.05480090088833372,0.1306271870733577
0.452,0.03203655212351222,0.5219351998736199,0.09979011256414044,0.0021624663382427303,0.8709076019520078,0.06644895422089311,0.057741673179575174,0.20849251745716027,0.07572188569791385,0.03865550654855982,0.05498671042035175,0.13034004174140973
0.453,0.03205468264048781,0.5234725870699084,0.09937700659306507,0.0024233074824547467,0.869548415910289,0.06667030145271965,0.05796587046963263,0.20888967463365823,0.07591487059227811,0.03870169899542757,0.05517546808308309,0.1300488214362803
0.454,0.03207231719150247,0.5248560676379046,0.0989510231331251,0.002713235821105834,0.868195146207838,0.06689870144747215,0.05820326469311184,0.20927723368908624,0.076107340476951,0.03873904766662752,0.05536692811384197,0.12975312860001414
0.455,0.03208941967302048,0.5260834166794734,0.09851236342146584,0.0030329670897263285,0.8668482031253487,0.06713436896455813,0.05845346192365211,0.20965498289434664,0.07629901001981979,0.038767541856003764,0.0555608444692404,0.12945257339772
0.456,0.03210595357408637,0.5271525385174152,0.09806123640572598,0.0033832068171153864,0.8655079244310466,0.06737751137069418,0.05871605789465276,0.21002271281392196,0.07648959238539733,0.03878717811229846,0.0557569712073307,0.12914677407276878
0.457,0.03212188199996113,0.5280614703299847,0.097597858458648,0.0037646490394078265,0.8641745747320524,0.0676283283288025,0.05899063851621444,0.21038021590016448,0.07667879957771051,0.0387979603130262,0.05595506286832877,0.12883535728734646
0.458,0.03213716769538239,0.5288083856114603,0.09712245309251495,0.00417797500294288,0.862848344876057,0.06788701149467442,0.05927678040005518,0.21072728606647975,0.07686634278446647,0.038799899740994674,0.056154874853159314,0.12851795844674554
0.459,0.03215177306726378,0.5293915974500872,0.09663525067385659,0.004623851857755191,0.8615293514034421,0.06815374422158388,0.05957405139124158,0.21106371824184714,0.07705193272241347,0.03879301516316079,0.05635616379903974,0.12819422200571395
0.46,0.032165660206654234,0.5298095616151685,0.09613648813873271,0.0051029313435996945,0.8602176360531782,0.06842870127324054,0.05988201110556028,0.21138930790896476,0.07723527998373834,0.03877733291147674,0.05655868795123098,0.1278638017552009
0.461,0.03217879090981921,0.5300608794453326,0.09562640870883035,0.005615848470461132,0.8589131653292158,0.06871204854582309,0.060200211471286603,0.21170385062819566,0.07741609538318793,0.03875288696540846,0.056762207530159745,0.1275263610879625
0.462,0.032191126698464426,0.5301443005301647,0.09510526160853486,0.006163220195602205,0.8576158301362552,0.06900394280025196,0.06052819727411672,0.2120071415494219,0.07759409030550102,0.03871971903582252,0.05696648509320795,0.1271815732417695
0.463,0.032202628839135765,0.5300587251774236,0.09457330178294092,0.006745644099253248,0.8563254454943444,0.06930453140631773,0.06086550670393866,0.21229897491389532,0.07776897705274284,0.03867787864995967,0.05717128589057064,0.12682912151964137
0.464,0.03221325836201938,0.5298032066579592,0.09403078961665486,0.007363697061135472,0.8550417503416825,0.06961395210064295,0.06121167190212713,0.21257914354829135,0.07794046919113175,0.03862742323724408,0.0573763782146845,0.12646869948728773
0.465,0.032222976079405934,0.5293769532204512,0.0934779906529413,0.00801793394008911,0.8537644074348841,0.06993233276069787,0.061566219507934186,0.2128474383532788,0.07810828189700864,0.03856841821569264,0.05758153374280534,0.12610001114890657
0.466,0.032231742604221125,0.5287793298686047,0.09291517531275696,0.008708886259109334,0.8524930033558583,0.07025979119732484,0.06192867120254002,0.21310364778925278,0.07827213230154449,0.03850093707869791,0.05778652787233584,0.12572277110329694
0.467,0.03223951836902463,0.5280098598943593,0.09234261861313772,0.009437060898264514,0.8512270486344234,0.07059643496821687,0.062298544249327244,0.21334755736225733,0.07843173983366894,0.03842506148193185,0.057991140048501186,0.12533670468279173
0.468,0.032246263645894765,0.5270682261619093,0.09176059988466848,0.010202938797997526,0.8499659779962754,0.07094236121478124,0.06267535202899627,0.21357894911353534,0.07858682656052426,0.03834088133010712,0.058195154083888194,0.1249415480777821
0.469,0.03225193856760097,0.5259542721390147,0.09116940248794234,0.011006973675435669,0.8487091507466258,0.07129765652467167,0.06305860456820465,0.2137976011164228,0.07873711752460354,0.03824849486327868,0.05839835846929123,0.12453704844957653
0.47,0.032256503150423804,0.5246680026741597,0.09056931352923829,0.011849590756399036,0.8474558512999893,0.07166239682200583,0.06344780906061202,0.21400328698452395,0.07888234107655277,0.03814800874237269,0.058600546675144576,0.12412296403411584
0.471,0.03225991731895623,0.5232095845201912,0.08996062357583184,0.012731185525845925,0.8462052898656153,0.07203664728713784,0.06384247037946016,0.21419577539521437,0.07902222920260743,0.038039538133633026,0.05880151744264461,0.1236990642386718
0.472,0.03226214093317607,0.5215793466066279,0.08934362637152261,0.01365212249954293,0.8449566032962383,0.07242046230758606,0.06424209158115354,0.21437482963262605,0.0791565178456302,0.03792320679169951,0.05900107506351625,0.12326512973331971
0.473,0.03226313381799869,0.5197777800640119,0.08871861855296861,0.01461273401976679,0.8437088561058103,0.07281388546158596,0.06464617439958496,0.21454020715415958,0.07928494721882816,0.03779914714107445,0.059199029647202285,0.12282095253853971
0.474,0.032262855795502955,0.5178055380047677,0.08808589936735935,0.015613319077879917,0.8424610416602702,0.07321694953546325,0.06505421973113329,0.21469165918445207,0.0794072621113345,0.03766750035575257,0.05939519737410388,0.12236633610995894
0.475,0.03226126671994269,0.5156634350661657,0.08744577039189075,0.016654142166585666,0.8412120835443198,0.07362967657583039,0.06546572811046297,0.2148289303405659,0.07952321218499815,0.03752841643681869,0.05958940073351397,0.12190109542085914
0.476,0.03225832651562827,0.5133524467218505,0.08679853525543972,0.01773543216469219,0.839960837106304,0.07405207797736298,0.065880200177289,0.21495175829177743,0.0796325522618522,0.03738205428780222,0.05978146874487204,0.12142505704278146
0.477,0.03225399521774358,0.510873708369029,0.0861444993628524,0.018857381257170295,0.8387060911823714,0.07448415460662754,0.06629713713437937,0.2150598734569673,0.07973504260184812,0.03722858178751047,0.05997123716120765,0.12093805922429027
0.478,0.03224823301613528,0.5082285141988405,0.08548396962231028,0.020020143893259137,0.8374465699997913,0.07492589696219126,0.06671604119703947,0.215152998742111,0.07983044917050912,0.03706817585998302,0.06015854865381553,0.1204399519678077
0.479,0.032241000302064664,0.5054183158577501,0.0848172541762117,0.021223835785372614,0.8361809352578269,0.07537728537102761,0.06713641603434223,0.21523084932004455,0.07991854389618415,0.036901022541136856,0.060343252977445944,0.11993059710438923
0.48,0.032232257717931735,0.5024447209078605,0.08414466213606504,0.022468532951534174,0.8349077883828361,0.07583829022097356,0.06755776720237729,0.21529313245451953,0.07999910491664065,0.036727317041651386,0.06052520711543323,0.11940986836645454
0.481,0.03222196620996305,0.49930949109375616,0.08346650332182971,0.023754270804083134,0.833625672952572,0.0763088722288458,0.06797960256968495,0.21533954737045885,0.08007191681462121,0.03654726380557793,0.060704275404214775,0.11887765145873097
0.482,0.032210087083845665,0.49601454042300996,0.08278308800615108,0.025081043287376956,0.8323330772829988,0.07678898274362718,0.0684014327349797,0.2153697851723522,0.08013677084191625,0.03636107656417194,0.060880329636676486,0.11833384412805252
0.483,0.03219658206325848,0.49256193306662716,0.08209472666378029,0.02644880206718585,0.8310284371694211,0.0772785640840201,0.06882277143714662,0.21538352881263742,0.08019346513139099,0.03616897838442598,0.061053249143868234,0.11777835623308378
0.484,0.032181413351217256,0.48895388108474225,0.08140172972637583,0.027857455774412884,0.829710138772713,0.07777754990953548,0.0692431359573359,0.215380453111808,0.08024180489635466,0.03597120171172121,0.061222920854767555,0.11721110981550242
0.485,0.032164543694182125,0.48519274198181994,0.08070440734269006,0.029306869305763063,0.8283765216409454,0.07828586562416306,0.06966204751294482,0.21536022483158881,0.08028160261649964,0.035767988406061366,0.06138923933405474,0.11663203917445931
0.486,0.03214593644882671,0.4812810160947007,0.0800030691439417,0.030796863183875173,0.8270258818565875,0.07880342881152679,0.07007903164309102,0.21532250280204895,0.08031267820950141,0.03555958977123959,0.06155210679805472,0.11604109094632364
0.487,0.03212555565142842,0.4772213438160359,0.07929802401404526,0.03232721297942455,0.8256564752999543,0.07933014970018479,0.07049361858511809,0.2152669381031863,0.08033485918717144,0.035346266576371695,0.061711433109172764,0.11543822419158446
0.488,0.03210336608984103,0.4730165026548433,0.0785895798642385,0.033897648797636584,0.8242665210207726,0.07986593165753872,0.07090534364156668,0.21519317430131316,0.08034798079498444,0.035128289069150415,0.06186713574923273,0.11482341049063534
